1984
1985
1985
1985
1986
1986
1987
1987
1986
1986
1985
1985
1985
1986
1986
1986
1987
1987
1987
1986
1986
1986
1987
1990
1993
1995
1995
1994
1993
1993
1993
1995
1996
1996
1995
1993
1991
1989
1989
1988
1988
1988
1989
1989
1990
1991
1990
1989
1987
1985
1987
2001
2029
2069
2107
2127
2116
2077
2028
1986
1966
1967
1979
1991
1996
1995
1992
1990
1989
1988
1988
1988
1989
1989
1990
1990
1990
1990
1990
1989
1989
1990
1990
1991
1992
1993
1994
1994
1994
1993
1993
1993
1994
1995
1997
1999
2000
2000
2000
2000
2001
2001
2002
2004
2005
2006
2007
2007
2008
2009
2010
2011
2012
2013
2013
2013
2013
2013
2012
2011
2010
2008
2006
2003
2001
1998
1997
1995
1994
1993
1991
1990
1990
1989
1990
1990
1990
1990
1990
1990
1989
1989
1989
1989
1989
1989
1990
1990
1990
1990
1990
1990
1990
1991
1992
1993
1993
1992
1992
1991
1991
1991
1991
1991
1992
1993
1994
1993
1992
1991
1990
1989
1989
1990
1991
1991
1992
1991
1991
1990
1990
1990
1990
1991
1992
1992
1992
1992
1992
1993
1993
1992
1992
1991
1992
1992
1993
1993
1992
1992
1991
1991
1991
1991
1992
1993
1993
1992
1992
1991
1990
1990
1991
1991
1992
1993
1993
1993
1993
1992
1992
1993
1994
1996
1997
1998
1998
1998
1998
1998
1998
1997
1997
1996
1996
1995
1995
1994
1993
1992
1992
1992
1992
1993
1993
1992
1990
1988
1986
1990
2006
2041
2086
2128
2147
2132
2088
2034
1991
1971
1972
1983
1991
1993
1992
1990
1990
1989
1990
1990
1990
1990
1990
1991
1991
1992
1993
1992
1992
1992
1991
1992
1992
1993
1993
1993
1994
1994
1994
1994
1995
1995
1996
1997
1997
1998
1998
1998
1998
1998
1998
1999
2000
2001
2003
2004
2005
2005
2005
2005
2005
2006
2006
2007
2008
2008
2009
2009
2009
2008
2007
2004
2002
2000
1998
1997
1995
1994
1993
1991
1991
1990
1991
1991
1991
1992
1991
1991
1991
1991
1991
1991
1991
1991
1991
1991
1991
1991
1991
1992
1992
1992
1992
1992
1992
1992
1993
1993
1993
1992
1992
1992
1992
1992
1992
1993
1994
1994
1993
1992
1991
1991
1991
1992
1992
1993
1993
1992
1992
1991
1991
1991
1992
1992
1992
1992
1992
1992
1992
1993
1992
1992
1992
1992
1992
1992
1993
1993
1992
1992
1992
1992
1992
1992
1993
1993
1993
1992
1992
1991
1991
1991
1991
1992
1992
1992
1993
1993
1993
1994
1995
1997
1998
1998
1998
1998
1998
1999
1999
1998
1997
1996
1995
1995
1995
1995
1994
1993
1992
1992
1992
1993
1993
1993
1992
1990
1990
1997
2018
2054
2099
2133
2140
2113
2063
2013
1979
1970
1978
1990
1996
1997
1994
1992
1992
1993
1993
1994
1993
1993
1992
1992
1993
1994
1995
1996
1996
1997
1997
1996
1996
1996
1996
1997
1999
2000
2000
2000
2000
2000
2001
2002
2002
2003
2003
2004
2004
2005
2006
2006
2007
2008
2009
2011
2012
2014
2015
2016
2016
2016
2016
2016
2017
2018
2019
2019
2019
2017
2015
2013
2010
2008
2007
2006
2005
2004
2002
2001
2000
1999
1999
1999
2000
2000
2001
2002
2002
2001
2001
2000
2000
2001
2001
2002
2002
2003
2003
2002
2002
2001
2001
2001
2002
2002
2003
2003
2003
2002
2002
2001
2001
2001
2001
2001
2001
2002
2002
2002
2002
2002
2002
2002
2002
2003
2003
2003
2002
2002
2001
2000
2000
2000
2000
2001
2002
2002
2002
2001
2000
2000
1999
1999
1999
1999
1999
1999
1999
1999
1998
1998
1998
1997
1998
1998
1999
1999
1998
1997
1996
1996
1995
1995
1996
1997
1997
1997
1997
1996
1995
1994
1994
1994
1995
1995
1995
1995
1996
1997
1998
1998
1997
1997
1998
1998
1999
1998
1996
1994
1992
1990
1989
1989
1989
1989
1990
1990
1989
1989
1988
1987
1984
1982
1980
1982
1995
2023
2063
2103
2123
2111
2070
2019
1976
1956
1959
1971
1983
1986
1984
1981
1979
1979
1979
1979
1979
1978
1978
1977
1977
1977
1977
1977
1977
1977
1977
1977
1977
1977
1977
1977
1977
1978
1978
1978
1978
1978
1978
1978
1979
1979
1980
1981
1981
1982
1983
1984
1985
1986
1986
1986
1986
1987
1987
1989
1990
1991
1992
1992
1992
1991
1991
1990
1990
1989
1987
1985
1982
1979
1975
1972
1969
1967
1964
1963
1963
1962
1962
1961
1960
1959
1958
1959
1960
1961
1961
1961
1960
1959
1959
1958
1958
1958
1959
1959
1960
1961
1961
1961
1961
1961
1960
1960
1960
1961
1961
1960
1960
1959
1959
1959
1960
1960
1959
1958
1958
1957
1957
1957
1957
1956
1956
1956
1956
1957
1958
1957
1956
1956
1955
1955
1955
1955
1956
1956
1956
1956
1956
1956
1955
1955
1955
1955
1955
1956
1956
1955
1954
1953
1952
1952
1953
1956
1958
1959
1960
1960
1959
1959
1959
1960
1961
1961
1961
1960
1958
1956
1955
1954
1953
1953
1953
1953
1953
1953
1953
1953
1951
1949
1948
1951
1964
1990
2027
2061
2080
2070
2033
1983
1941
1920
1921
1935
1949
1956
1957
1955
1953
1952
1951
1951
1951
1952
1953
1953
1954
1955
1955
1955
1954
1953
1953
1954
1955
1956
1957
1957
1956
1956
1957
1958
1959
1960
1962
1963
1964
1964
1964
1964
1964
1964
1965
1966
1968
1969
1971
1972
1974
1976
1978
1979
1980
1981
1982
1983
1984
1985
1984
1982
1980
1976
1972
1968
1964
1961
1960
1959
1957
1955
1952
1949
1947
1947
1948
1949
1950
1951
1951
1950
1949
1949
1948
1948
1948
1949
1950
1951
1952
1952
1951
1951
1950
1950
1951
1952
1954
1955
1956
1956
1955
1955
1954
1955
1955
1957
1958
1958
1959
1959
1958
1958
1957
1957
1957
1957
1958
1959
1959
1960
1959
1959
1958
1958
1958
1959
1959
1960
1960
1960
1961
1960
1959
1959
1959
1960
1961
1962
1962
1961
1960
1959
1960
1961
1964
1966
1968
1969
1969
1969
1968
1968
1968
1968
1969
1970
1971
1970
1968
1966
1965
1964
1964
1965
1966
1967
1967
1967
1966
1964
1962
1961
1964
1977
2005
2044
2081
2102
2093
2056
2006
1964
1942
1943
1955
1968
1973
1974
1971
1970
1969
1968
1969
1969
1970
1971
1971
1971
1970
1970
1970
1970
1970
1971
1971
1972
1973
1974
1975
1976
1977
1977
1976
1976
1977
1977
1978
1979
1980
1981
1981
1982
1982
1983
1984
1986
1988
1990
1992
1994
1994
1995
1995
1995
1996
1998
1999
2001
2002
2002
2002
2000
1997
1994
1990
1987
1984
1982
1980
1979
1978
1978
1977
1976
1975
1974
1974
1974
1974
1974
1974
1974
1974
1974
1975
1976
1977
1977
1976
1976
1976
1976
1977
1977
1978
1979
1979
1979
1979
1979
1979
1979
1979
1978
1978
1979
1980
1981
1982
1982
1982
1981
1981
1981
1981
1982
1982
1982
1982
1982
1982
1982
1982
1982
1982
1983
1984
1984
1984
1984
1983
1983
1983
1983
1983
1984
1985
1986
1986
1985
1984
1984
1983
1984
1985
1985
1986
1986
1986
1986
1985
1985
1985
1985
1986
1986
1987
1987
1987
1987
1987
1988
1989
1991
1993
1994
1994
1993
1992
1992
1992
1993
1992
1991
1990
1989
1989
1988
1988
1988
1988
1987
1987
1987
1988
1988
1988
1986
1984
1984
1993
2019
2059
2106
2138
2140
2107
2055
2005
1974
1967
1975
1986
1991
1991
1989
1987
1987
1986
1986
1986
1986
1986
1986
1987
1988
1989
1989
1989
1989
1989
1988
1988
1988
1988
1989
1989
1990
1990
1990
1990
1989
1989
1990
1991
1993
1994
1995
1995
1995
1995
1995
1996
1997
1999
2000
2001
2002
2002
2003
2003
2004
2004
2004
2004
2005
2005
2006
2006
2006
2005
2004
2002
2000
1998
1996
1994
1993
1992
1991
1990
1990
1989
1989
1989
1990
1991
1991
1991
1991
1990
1990
1989
1990
1991
1992
1993
1994
1994
1993
1992
1991
1990
1991
1991
1992
1993
1994
1994
1994
1994
1993
1992
1992
1992
1993
1994
1995
1994
1993
1992
1992
1992
1993
1993
1994
1994
1995
1995
1996
1996
1995
1995
1995
1995
1996
1996
1996
1996
1995
1994
1994
1993
1994
1994
1995
1996
1996
1996
1995
1995
1994
1994
1995
1995
1996
1996
1996
1995
1995
1994
1993
1992
1992
1993
1994
1996
1998
2000
2001
2001
1999
1998
1997
1998
1999
2001
2001
2000
1998
1996
1994
1993
1993
1993
1994
1994
1994
1993
1993
1992
1992
1990
1988
1986
1990
2007
2042
2088
2131
2149
2132
2087
2032
1990
1971
1974
1986
1995
1996
1994
1991
1990
1989
1989
1990
1990
1991
1991
1990
1990
1990
1990
1991
1991
1992
1993
1993
1993
1993
1993
1993
1994
1994
1994
1995
1995
1995
1996
1997
1997
1997
1996
1996
1997
1998
2000
2001
2002
2003
2003
2002
2003
2004
2005
2007
2009
2010
2010
2010
2010
2010
2010
2010
2010
2010
2009
2007
2004
2001
1998
1995
1994
1993
1992
1992
1992
1992
1992
1992
1992
1992
1992
1992
1992
1993
1992
1992
1992
1992
1992
1992
1992
1992
1993
1993
1994
1994
1994
1994
1993
1992
1992
1992
1993
1994
1995
1995
1995
1995
1995
1995
1995
1995
1996
1996
1995
1995
1995
1994
1994
1993
1993
1994
1994
1995
1996
1996
1996
1996
1995
1994
1993
1994
1994
1995
1995
1996
1996
1996
1995
1995
1994
1994
1994
1995
1995
1996
1996
1996
1996
1995
1995
1994
1994
1995
1996
1997
1997
1997
1996
1995
1996
1998
2000
2002
2003
2003
2003
2003
2003
2003
2002
2000
1999
1997
1996
1996
1996
1996
1996
1996
1996
1996
1997
1997
1996
1995
1992
1991
1994
2011
2045
2088
2127
2142
2124
2078
2027
1988
1972
1977
1989
1997
1999
1998
1996
1996
1996
1996
1996
1995
1995
1995
1995
1996
1997
1997
1997
1997
1997
1997
1997
1997
1998
1999
2001
2001
2002
2001
2000
1999
1999
1999
2001
2003
2005
2005
2005
2004
2003
2003
2003
2005
2006
2008
2010
2012
2013
2013
2013
2013
2013
2013
2014
2015
2016
2017
2016
2014
2012
2008
2005
2002
2001
2000
1999
1997
1995
1992
1989
1988
1988
1989
1990
1991
1990
1989
1987
1986
1985
1985
1986
1986
1987
1987
1987
1987
1987
1986
1985
1984
1984
1985
1986
1987
1987
1986
1985
1984
1983
1982
1982
1983
1984
1985
1986
1987
1987
1986
1984
1982
1981
1981
1981
1982
1984
1985
1985
1985
1984
1983
1981
1981
1981
1982
1984
1984
1983
1982
1980
1980
1980
1981
1981
1982
1982
1982
1982
1981
1981
1980
1980
1979
1979
1979
1980
1980
1980
1980
1979
1978
1978
1978
1979
1979
1980
1980
1980
1981
1983
1984
1984
1983
1982
1982
1983
1983
1984
1983
1981
1979
1977
1976
1976
1976
1976
1977
1977
1977
1977
1976
1974
1972
1970
1971
1980
2001
2035
2073
2099
2099
2069
2022
1976
1949
1945
1956
1971
1978
1979
1976
1973
1971
1971
1972
1973
1973
1973
1972
1971
1972
1973
1975
1976
1977
1977
1976
1975
1975
1975
1976
1977
1977
1977
1977
1977
1978
1978
1979
1979
1979
1979
1979
1980
1982
1983
1985
1986
1987
1989
1990
1991
1992
1993
1994
1995
1996
1997
1998
1998
1998
1997
1997
1996
1995
1993
1990
1986
1983
1979
1976
1973
1971
1969
1968
1967
1966
1965
1965
1965
1965
1965
1964
1965
1965
1965
1965
1965
1964
1964
1963
1963
1963
1963
1963
1964
1965
1965
1965
1965
1965
1965
1966
1967
1967
1968
1968
1968
1967
1967
1967
1967
1967
1967
1967
1968
1968
1967
1967
1966
1966
1966
1966
1967
1968
1969
1969
1969
1968
1967
1967
1967
1968
1970
1971
1971
1971
1970
1969
1968
1967
1967
1967
1968
1969
1970
1970
1970
1971
1971
1972
1973
1973
1974
1974
1974
1975
1976
1977
1976
1974
1971
1969
1968
1968
1969
1970
1970
1970
1969
1967
1966
1965
1965
1966
1967
1975
1993
2024
2062
2092
2099
2076
2033
1986
1954
1945
1952
1964
1972
1973
1971
1970
1970
1970
1971
1971
1971
1971
1970
1971
1971
1971
1970
1971
1971
1972
1973
1974
1974
1974
1975
1975
1976
1977
1977
1976
1976
1977
1978
1979
1979
1979
1980
1981
1983
1984
1985
1986
1986
1987
1988
1989
1990
1992
1994
1996
1997
1997
1997
1997
1997
1997
1997
1997
1996
1995
1992
1987
1983
1978
1976
1974
1973
1973
1972
1971
1971
1970
1970
1969
1967
1966
1966
1967
1968
1969
1970
1970
1971
1970
1970
1970
1970
1971
1972
1972
1972
1971
1971
1970
1970
1970
1971
1971
1973
1974
1975
1975
1974
1974
1974
1975
1975
1975
1975
1975
1975
1975
1975
1974
1974
1973
1973
1974
1976
1977
1978
1977
1975
1974
1973
1973
1975
1976
1977
1978
1978
1977
1976
1975
1976
1977
1978
1978
1979
1979
1978
1978
1978
1977
1977
1978
1980
1983
1985
1986
1986
1985
1984
1984
1984
1985
1985
1985
1984
1981
1979
1977
1977
1978
1980
1981
1981
1981
1980
1979
1978
1976
1975
1980
1996
2028
2069
2106
2122
2105
2063
2013
1974
1957
1961
1973
1982
1985
1984
1982
1981
1980
1980
1980
1980
1981
1981
1981
1982
1982
1982
1983
1983
1983
1983
1983
1983
1984
1985
1986
1987
1987
1987
1987
1987
1987
1987
1988
1989
1990
1991
1992
1993
1993
1994
1994
1995
1996
1997
1999
2000
2002
2003
2004
2004
2004
2005
2005
2005
2006
2006
2006
2005
2003
2000
1997
1994
1991
1990
1988
1988
1987
1985
1983
1982
1981
1981
1981
1982
1982
1981
1981
1981
1981
1981
1982
1983
1983
1983
1983
1983
1983
1983
1984
1984
1984
1984
1984
1985
1985
1985
1986
1985
1985
1985
1985
1986
1987
1987
1987
1986
1986
1986
1986
1986
1987
1987
1988
1988
1987
1987
1987
1986
1987
1987
1988
1988
1989
1989
1989
1989
1988
1987
1987
1987
1987
1987
1988
1988
1989
1990
1991
1991
1990
1990
1989
1988
1989
1989
1989
1990
1990
1990
1989
1989
1989
1989
1990
1992
1994
1995
1996
1996
1995
1995
1994
1995
1996
1996
1995
1994
1993
1992
1991
1991
1991
1991
1991
1991
1991
1991
1991
1990
1989
1986
1985
1988
2001
2031
2074
2118
2143
2135
2096
2043
1996
1972
1970
1981
1992
1996
1995
1992
1990
1990
1989
1989
1990
1991
1992
1993
1993
1993
1992
1991
1990
1990
1990
1992
1993
1993
1994
1993
1993
1993
1995
1996
1997
1998
1998
1997
1996
1996
1997
1998
2000
2001
2002
2003
2003
2004
2004
2005
2006
2006
2007
2008
2009
2011
2012
2013
2012
2012
2011
2011
2010
2010
2009
2008
2006
2004
2001
1999
1997
1995
1994
1994
1994
1994
1995
1995
1994
1993
1991
1991
1991
1992
1993
1994
1995
1995
1995
1995
1995
1994
1994
1994
1995
1995
1994
1994
1993
1992
1992
1993
1994
1995
1996
1996
1996
1995
1994
1993
1993
1992
1993
1993
1994
1996
1997
1997
1997
1996
1995
1994
1995
1996
1997
1998
1999
1998
1996
1994
1993
1993
1993
1995
1997
1998
1998
1998
1997
1996
1996
1996
1996
1996
1996
1996
1997
1997
1997
1997
1996
1996
1996
1996
1997
1998
1998
1997
1995
1994
1994
1995
1995
1996
1996
1997
1999
2001
2002
2002
2002
2000
2000
2000
2001
2002
2003
2002
2001
1999
1998
1996
1996
1996
1997
1997
1998
1998
1998
1997
1996
1993
1990
1988
1991
2008
2044
2092
2137
2159
2145
2100
2044
1998
1976
1977
1987
1997
1999
1997
1994
1992
1992
1992
1993
1994
1995
1995
1995
1994
1994
1994
1994
1994
1994
1995
1995
1995
1995
1996
1996
1996
1997
1998
1998
1998
1999
1999
2000
2000
2001
2001
2002
2002
2003
2003
2004
2005
2006
2006
2006
2006
2007
2009
2011
2013
2013
2013
2012
2012
2012
2012
2011
2011
2011
2011
2011
2009
2007
2005
2002
2000
1999
1998
1998
1998
1997
1997
1996
1996
1996
1995
1995
1996
1996
1998
1998
1998
1997
1996
1994
1993
1993
1994
1994
1995
1996
1996
1996
1995
1994
1993
1993
1993
1994
1995
1996
1996
1996
1995
1993
1993
1992
1993
1994
1995
1994
1993
1992
1991
1990
1991
1991
1992
1991
1990
1989
1989
1988
1988
1988
1988
1988
1987
1987
1986
1986
1985
1985
1985
1984
1982
1982
1981
1982
1983
1983
1983
1982
1980
1978
1978
1978
1978
1978
1977
1976
1976
1976
1976
1975
1975
1975
1975
1975
1975
1974
1972
1970
1968
1968
1969
1971
1973
1974
1975
1975
1973
1972
1971
1971
1970
1970
1968
1965
1962
1961
1960
1960
1961
1961
1960
1960
1959
1958
1957
1956
1954
1953
1956
1971
1999
2039
2075
2092
2077
2036
1985
1944
1926
1928
1940
1951
1954
1954
1952
1951
1950
1949
1947
1946
1945
1945
1945
1947
1948
1948
1948
1947
1945
1943
1943
1943
1945
1947
1948
1948
1947
1946
1945
1945
1945
1945
1945
1945
1945
1946
1946
1947
1948
1949
1949
1950
1950
1951
1952
1953
1954
1955
1956
1957
1957
1957
1957
1957
1958
1959
1960
1959
1957
1953
1950
1947
1944
1942
1939
1937
1934
1931
1929
1928
1927
1927
1927
1928
1929
1929
1928
1926
1925
1925
1924
1925
1926
1927
1928
1928
1927
1926
1925
1926
1927
1929
1930
1930
1930
1929
1929
1928
1928
1928
1929
1929
1930
1930
1930
1930
1930
1931
1931
1931
1930
1930
1931
1931
1932
1932
1931
1931
1930
1930
1931
1932
1933
1934
1934
1933
1933
1932
1932
1933
1933
1934
1934
1934
1934
1935
1936
1936
1936
1935
1934
1934
1934
1935
1936
1937
1938
1939
1941
1942
1943
1944
1944
1944
1945
1945
1945
1944
1942
1941
1940
1939
1939
1939
1940
1940
1940
1941
1942
1942
1941
1939
1937
1935
1937
1947
1972
2009
2049
2075
2074
2045
1996
1951
1923
1919
1929
1942
1949
1949
1947
1944
1943
1943
1944
1944
1945
1946
1946
1947
1947
1947
1948
1948
1950
1951
1951
1951
1951
1951
1952
1953
1954
1954
1955
1955
1956
1956
1957
1958
1959
1960
1961
1962
1963
1964
1964
1965
1966
1967
1968
1970
1971
1972
1973
1975
1976
1978
1979
1980
1980
1980
1979
1978
1978
1977
1975
1972
1969
1965
1962
1960
1959
1958
1959
1959
1959
1959
1958
1958
1957
1956
1956
1957
1958
1959
1960
1960
1960
1960
1960
1960
1961
1961
1962
1963
1964
1964
1964
1963
1962
1962
1962
1963
1965
1966
1968
1968
1968
1968
1968
1968
1968
1969
1970
1970
1971
1971
1970
1970
1969
1969
1970
1971
1971
1972
1972
1972
1971
1971
1972
1973
1973
1973
1973
1973
1973
1973
1974
1974
1974
1974
1974
1975
1975
1976
1976
1977
1978
1977
1977
1976
1976
1976
1977
1978
1979
1979
1979
1979
1979
1978
1978
1978
1979
1981
1984
1986
1987
1986
1984
1983
1984
1985
1987
1988
1988
1987
1985
1983
1981
1981
1981
1981
1982
1983
1984
1984
1983
1981
1979
1977
1976
1983
2005
2044
2090
2127
2137
2112
2062
2010
1973
1961
1968
1980
1988
1989
1986
1983
1982
1982
1982
1983
1983
1984
1984
1984
1984
1984
1984
1984
1984
1985
1985
1987
1988
1988
1988
1987
1986
1986
1986
1987
1989
1990
1991
1991
1991
1990
1990
1991
1992
1994
1995
1996
1996
1997
1997
1998
1998
1999
2000
2002
2005
2006
2006
2005
2004
2004
2004
2004
2005
2005
2004
2002
2000
1997
1994
1992
1990
1989
1988
1988
1988
1988
1988
1987
1986
1985
1985
1985
1986
1987
1988
1988
1987
1987
1986
1986
1986
1986
1987
1988
1988
1988
1988
1988
1988
1988
1988
1987
1988
1989
1990
1991
1990
1990
1989
1987
1987
1987
1988
1989
1990
1991
1990
1990
1988
1987
1986
1986
1987
1988
1989
1990
1990
1990
1989
1989
1988
1988
1988
1989
1989
1989
1989
1989
1988
1988
1988
1988
1988
1989
1989
1989
1989
1988
1988
1988
1988
1988
1988
1988
1988
1987
1987
1986
1986
1985
1985
1985
1986
1986
1988
1990
1993
1994
1993
1992
1991
1991
1992
1994
1995
1995
1993
1991
1989
1987
1986
1986
1986
1987
1988
1988
1989
1988
1987
1986
1984
1983
1984
1997
2025
2066
2109
2133
2125
2087
2034
1989
1966
1965
1977
1988
1991
1990
1987
1985
1985
1985
1985
1986
1986
1986
1985
1985
1985
1985
1985
1986
1986
1987
1988
1988
1988
1988
1988
1988
1988
1988
1989
1990
1991
1992
1992
1992
1992
1993
1993
1994
1994
1994
1995
1995
1996
1997
1998
1999
2000
2001
2002
2003
2005
2006
2007
2007
2007
2007
2006
2005
2004
2003
2002
2001
1999
1996
1993
1990
1988
1986
1986
1986
1987
1987
1987
1986
1985
1983
1983
1984
1985
1986
1987
1987
1986
1986
1985
1985
1985
1985
1986
1986
1987
1987
1988
1988
1988
1987
1987
1987
1988
1989
1989
1988
1987
1987
1987
1987
1987
1987
1988
1988
1988
1988
1988
1988
1987
1987
1986
1986
1987
1988
1989
1989
1989
1989
1988
1988
1988
1988
1989
1989
1990
1989
1989
1988
1988
1987
1987
1987
1988
1988
1989
1990
1990
1990
1989
1988
1987
1986
1987
1988
1989
1989
1989
1988
1988
1987
1986
1986
1986
1987
1989
1991
1994
1995
1995
1994
1993
1993
1993
1994
1995
1995
1994
1993
1991
1990
1989
1988
1988
1988
1988
1988
1989
1989
1988
1987
1985
1983
1984
1994
2020
2059
2101
2127
2122
2086
2035
1989
1964
1963
1975
1987
1991
1991
1987
1985
1985
1985
1985
1985
1985
1986
1986
1986
1985
1984
1984
1985
1986
1987
1987
1987
1986
1986
1986
1987
1988
1989
1989
1989
1989
1988
1989
1989
1990
1991
1992
1993
1993
1994
1994
1995
1996
1997
1997
1998
1998
1998
1999
2001
2003
2005
2006
2006
2005
2004
2003
2002
2001
2000
1999
1996
1993
1990
1987
1984
1980
1978
1976
1976
1978
1979
1980
1978
1976
1973
1970
1969
1970
1971
1972
1973
1973
1973
1973
1972
1972
1972
1972
1972
1972
1973
1973
1972
1971
1971
1970
1971
1972
1973
1974
1974
1974
1974
1973
1973
1972
1972
1972
1972
1972
1973
1974
1974
1973
1973
1972
1972
1973
1974
1974
1974
1973
1972
1971
1971
1971
1971
1972
1973
1974
1975
1975
1976
1976
1976
1975
1974
1972
1972
1972
1973
1974
1974
1974
1974
1974
1975
1976
1978
1980
1981
1983
1983
1983
1981
1978
1975
1973
1973
1974
1975
1975
1975
1974
1974
1975
1975
1975
1975
1973
1972
1972
1978
1995
2024
2059
2089
2096
2075
2033
1986
1953
1944
1952
1967
1978
1981
1979
1977
1976
1976
1976
1977
1977
1977
1977
1977
1978
1978
1978
1978
1979
1979
1980
1980
1981
1981
1982
1982
1982
1983
1984
1986
1986
1986
1986
1985
1986
1987
1989
1990
1991
1992
1994
1995
1996
1996
1997
1998
1999
2001
2003
2005
2006
2006
2007
2008
2008
2009
2010
2009
2008
2005
2002
1998
1994
1991
1988
1986
1984
1983
1982
1980
1979
1978
1977
1977
1978
1978
1979
1979
1979
1978
1978
1978
1978
1978
1979
1980
1982
1983
1983
1983
1982
1982
1981
1981
1982
1984
1985
1985
1985
1984
1983
1983
1983
1984
1985
1986
1986
1986
1986
1985
1985
1984
1983
1983
1984
1985
1987
1987
1987
1987
1986
1985
1984
1985
1986
1986
1987
1988
1988
1987
1987
1987
1987
1987
1987
1988
1988
1989
1989
1989
1989
1988
1988
1987
1988
1989
1990
1993
1995
1996
1997
1998
1997
1996
1995
1993
1992
1991
1991
1991
1991
1991
1991
1991
1992
1993
1994
1994
1993
1991
1989
1991
2005
2036
2078
2118
2135
2120
2078
2027
1987
1970
1974
1985
1994
1997
1995
1993
1992
1992
1991
1991
1991
1991
1992
1993
1994
1994
1994
1993
1993
1993
1994
1995
1996
1997
1997
1997
1997
1998
1998
1998
1998
1998
1998
1999
2000
2002
2003
2003
2002
2002
2002
2003
2004
2006
2007
2008
2009
2009
2010
2010
2011
2012
2013
2013
2014
2014
2014
2013
2012
2010
2008
2006
2004
2002
2000
1998
1996
1994
1993
1991
1991
1991
1991
1991
1991
1991
1991
1991
1990
1989
1989
1989
1989
1991
1991
1992
1992
1992
1991
1991
1991
1991
1991
1992
1993
1993
1993
1993
1992
1991
1991
1991
1991
1992
1992
1993
1993
1992
1992
1992
1992
1992
1992
1992
1992
1992
1992
1992
1992
1992
1992
1992
1992
1993
1993
1994
1994
1994
1993
1992
1992
1992
1992
1992
1992
1992
1992
1993
1992
1992
1991
1990
1990
1991
1992
1993
1993
1993
1992
1992
1993
1995
1997
1999
1999
1999
1998
1996
1994
1992
1991
1990
1990
1991
1993
1994
1994
1994
1993
1991
1989
1987
1985
1986
1995
2020
2060
2104
2135
2136
2103
2051
2003
1974
1969
1978
1989
1994
1994
1991
1989
1989
1989
1989
1989
1989
1989
1989
1989
1989
1989
1989
1989
1990
1991
1991
1992
1992
1992
1992
1993
1993
1993
1994
1994
1995
1995
1995
1995
1994
1994
1994
1995
1997
1999
2000
2000
2000
1999
2000
2001
2002
2004
2005
2007
2008
2008
2009
2009
2008
2008
2007
2007
2007
2006
2004
2002
1999
1997
1994
1992
1990
1989
1989
1988
1988
1988
1987
1987
1986
1986
1987
1988
1989
1989
1989
1988
1988
1987
1987
1988
1989
1990
1991
1991
1990
1990
1989
1990
1990
1990
1990
1989
1990
1990
1991
1991
1991
1990
1989
1989
1989
1989
1990
1992
1992
1993
1992
1992
1991
1990
1989
1989
1990
1991
1991
1991
1991
1991
1991
1990
1990
1990
1990
1991
1991
1991
1991
1990
1990
1990
1990
1990
1990
1990
1990
1990
1989
1988
1988
1988
1989
1991
1994
1996
1997
1998
1998
1997
1995
1994
1992
1991
1990
1990
1989
1989
1988
1988
1987
1988
1989
1989
1989
1988
1986
1984
1984
1991
2013
2050
2093
2124
2126
2097
2047
1998
1967
1961
1970
1982
1989
1989
1987
1986
1985
1984
1984
1983
1982
1982
1982
1983
1984
1985
1986
1985
1985
1984
1983
1983
1984
1985
1986
1986
1986
1986
1985
1985
1984
1984
1985
1986
1987
1988
1989
1990
1990
1990
1990
1990
1991
1993
1994
1996
1997
1997
1998
1999
1999
2000
2001
2002
2004
2004
2004
2002
1999
1996
1992
1988
1984
1981
1979
1978
1977
1976
1974
1972
1970
1969
1969
1970
1971
1972
1972
1971
1970
1969
1968
1967
1968
1969
1970
1971
1972
1971
1971
1971
1971
1971
1971
1971
1972
1972
1973
1973
1973
1972
1972
1972
1972
1973
1974
1974
1974
1974
1974
1973
1973
1974
1974
1974
1973
1973
1973
1974
1974
1974
1974
1974
1973
1973
1974
1974
1975
1975
1974
1974
1974
1974
1975
1975
1976
1976
1976
1976
1978
1980
1982
1984
1984
1983
1982
1980
1979
1978
1978
1977
1976
1977
1978
1979
1981
1981
1982
1981
1979
1977
1975
1974
1977
1991
2018
2054
2088
2105
2093
2055
2007
1967
1949
1952
1966
1980
1985
1986
1984
1983
1983
1982
1982
1982
1982
1983
1984
1984
1985
1986
1986
1986
1985
1985
1985
1986
1988
1990
1991
1990
1989
1989
1989
1990
1992
1994
1995
1997
1997
1998
1998
1998
1998
1998
1999
2001
2003
2005
2007
2008
2009
2010
2012
2013
2015
2016
2018
2019
2019
2018
2016
2014
2011
2007
2004
2001
1997
1994
1991
1988
1986
1984
1984
1984
1983
1983
1983
1982
1982
1981
1981
1980
1980
1981
1981
1981
1982
1982
1983
1983
1982
1981
1980
1980
1981
1982
1983
1983
1982
1982
1982
1982
1983
1984
1984
1985
1985
1985
1985
1984
1984
1984
1984
1983
1983
1983
1983
1983
1983
1983
1983
1982
1982
1982
1983
1983
1983
1983
1981
1980
1979
1979
1979
1980
1982
1983
1983
1983
1981
1979
1978
1977
1977
1978
1979
1980
1980
1981
1981
1982
1982
1983
1984
1984
1984
1983
1982
1981
1979
1979
1978
1977
1977
1977
1978
1979
1980
1980
1978
1975
1972
1970
1970
1979
2002
2039
2079
2107
2109
2080
2032
1984
1955
1949
1958
1971
1979
1979
1976
1973
1970
1969
1970
1970
1971
1972
1973
1973
1973
1973
1973
1972
1971
1971
1972
1973
1973
1974
1974
1974
1974
1974
1974
1974
1974
1975
1975
1976
1976
1976
1976
1976
1977
1978
1979
1980
1981
1982
1983
1983
1984
1984
1984
1985
1986
1987
1988
1989
1989
1989
1988
1986
1984
1983
1980
1978
1975
1972
1969
1967
1965
1963
1962
1962
1962
1962
1962
1962
1962
1962
1961
1961
1961
1961
1961
1961
1962
1962
1963
1963
1963
1963
1962
1962
1962
1962
1963
1963
1963
1963
1962
1961
1961
1962
1963
1964
1964
1964
1964
1963
1963
1963
1963
1963
1963
1963
1963
1963
1962
1962
1962
1961
1962
1962
1963
1964
1964
1963
1962
1962
1961
1961
1961
1961
1962
1963
1964
1964
1963
1962
1961
1961
1961
1962
1963
1964
1964
1963
1963
1962
1961
1960
1960
1961
1962
1963
1964
1966
1967
1968
1968
1968
1968
1968
1968
1968
1968
1967
1966
1964
1963
1962
1962
1962
1963
1964
1965
1964
1964
1962
1960
1957
1956
1964
1986
2026
2073
2110
2118
2091
2041
1987
1950
1939
1947
1960
1968
1969
1966
1963
1961
1960
1960
1961
1962
1963
1964
1964
1963
1962
1962
1963
1964
1965
1966
1966
1966
1965
1965
1965
1965
1965
1965
1966
1967
1968
1969
1970
1970
1971
1971
1972
1973
1974
1975
1975
1976
1976
1976
1976
1976
1976
1977
1979
1980
1981
1982
1983
1983
1982
1981
1980
1979
1978
1977
1975
1974
1971
1968
1966
1964
1963
1962
1962
1961
1961
1961
1961
1961
1961
1960
1960
1960
1961
1962
1962
1962
1963
1963
1963
1963
1963
1962
1962
1962
1963
1963
1963
1963
1962
1961
1961
1962
1963
1964
1964
1965
1965
1965
1965
1965
1964
1964
1964
1965
1966
1967
1967
1967
1967
1966
1967
1967
1968
1968
1969
1970
1970
1969
1969
1967
1967
1966
1967
1968
1969
1970
1970
1969
1969
1969
1969
1969
1969
1969
1970
1971
1971
1972
1972
1972
1972
1971
1971
1970
1969
1969
1970
1971
1974
1976
1977
1978
1979
1980
1980
1981
1980
1979
1978
1977
1976
1975
1975
1975
1975
1975
1976
1976
1977
1976
1975
1974
1972
1972
1977
1994
2028
2070
2108
2122
2103
2058
2007
1969
1956
1961
1973
1981
1982
1980
1978
1977
1977
1978
1978
1978
1978
1978
1978
1977
1977
1978
1979
1980
1981
1982
1982
1982
1981
1981
1981
1982
1983
1984
1985
1985
1986
1987
1987
1987
1987
1988
1989
1991
1992
1994
1994
1995
1994
1994
1994
1995
1997
1999
2001
2003
2004
2005
2005
2004
2004
2003
2003
2003
2002
2001
1999
1996
1994
1991
1989
1986
1984
1984
1983
1983
1983
1983
1982
1982
1981
1981
1980
1980
1981
1981
1982
1982
1982
1982
1982
1982
1982
1983
1983
1983
1982
1981
1980
1980
1980
1980
1981
1982
1983
1983
1982
1981
1980
1979
1979
1980
1981
1981
1981
1980
1979
1978
1978
1979
1978
1978
1978
1979
1979
1980
1980
1980
1978
1976
1976
1976
1977
1978
1978
1978
1978
1977
1977
1976
1976
1976
1976
1977
1977
1977
1977
1977
1976
1975
1974
1974
1974
1975
1976
1976
1975
1974
1973
1973
1974
1977
1980
1983
1984
1983
1982
1980
1979
1978
1978
1978
1978
1976
1975
1974
1973
1973
1972
1972
1972
1973
1974
1974
1974
1973
1972
1972
1980
2002
2037
2074
2097
2093
2059
2011
1967
1943
1942
1955
1969
1977
1978
1977
1977
1976
1975
1974
1972
1971
1971
1972
1973
1974
1974
1975
1975
1975
1974
1974
1975
1976
1978
1980
1980
1980
1980
1978
1977
1977
1977
1978
1980
1982
1983
1984
1984
1984
1984
1984
1985
1987
1990
1992
1995
1996
1996
1996
1995
1996
1997
1999
2002
2004
2005
2004
2002
2000
1996
1992
1987
1983
1979
1975
1973
1970
1968
1966
1964
1963
1962
1962
1962
1962
1962
1962
1961
1960
1959
1958
1958
1958
1958
1959
1960
1961
1962
1962
1962
1961
1961
1962
1964
1966
1968
1970
1971
1970
1970
1969
1969
1969
1970
1970
1970
1970
1971
1972
1973
1974
1974
1973
1973
1974
1975
1976
1976
1975
1975
1975
1975
1975
1975
1976
1977
1977
1978
1979
1979
1979
1980
1980
1980
1979
1978
1978
1978
1979
1980
1982
1985
1987
1988
1989
1989
1989
1990
1991
1991
1991
1989
1988
1987
1986
1986
1985
1985
1985
1985
1985
1985
1985
1986
1986
1985
1984
1983
1985
1997
2023
2061
2100
2121
2112
2075
2026
1985
1963
1963
1975
1985
1991
1991
1991
1991
1990
1989
1988
1986
1985
1985
1986
1986
1988
1989
1989
1989
1989
1988
1988
1988
1989
1989
1989
1989
1989
1989
1989
1989
1990
1990
1990
1991
1992
1994
1995
1996
1995
1995
1995
1995
1997
1999
2001
2002
2003
2004
2005
2006
2008
2009
2009
2008
2008
2007
2007
2007
2006
2004
2002
1998
1996
1993
1992
1990
1988
1987
1986
1985
1984
1984
1984
1984
1984
1984
1984
1985
1986
1986
1986
1986
1986
1987
1988
1989
1990
1990
1990
1989
1988
1988
1988
1988
1989
1990
1991
1992
1992
1991
1990
1989
1989
1990
1991
1993
1994
1994
1993
1992
1991
1990
1991
1992
1993
1995
1995
1994
1994
1993
1992
1992
1992
1992
1992
1992
1992
1993
1994
1994
1994
1994
1993
1992
1992
1992
1993
1994
1994
1993
1993
1992
1992
1992
1992
1993
1993
1993
1992
1990
1990
1991
1993
1996
1999
2000
2000
1998
1996
1995
1995
1995
1996
1996
1996
1995
1993
1992
1991
1990
1991
1992
1993
1994
1994
1993
1991
1989
1986
1986
1995
2020
2060
2106
2137
2137
2105
2053
2005
1975
1970
1979
1990
1995
1995
1993
1992
1992
1992
1991
1990
1989
1988
1989
1990
1991
1992
1992
1991
1991
1991
1991
1992
1993
1994
1994
1993
1992
1991
1991
1992
1993
1995
1996
1997
1998
1999
1999
1999
1999
1998
1997
1997
1999
2000
2002
2003
2004
2004
2005
2006
2007
2007
2008
2008
2008
2008
2008
2007
2005
2003
2001
2000
1999
1998
1998
1996
1993
1991
1989
1987
1986
1986
1987
1987
1988
1988
1988
1988
1988
1988
1987
1987
1987
1988
1990
1991
1992
1991
1989
1987
1986
1986
1987
1989
1990
1991
1990
1989
1988
1988
1988
1989
1990
1990
1991
1991
1990
1989
1988
1987
1987
1988
1988
1989
1990
1990
1989
1988
1987
1986
1986
1986
1987
1988
1989
1990
1990
1989
1989
1988
1988
1987
1987
1987
1988
1988
1988
1987
1986
1986
1988
1990
1992
1993
1993
1992
1992
1992
1992
1992
1991
1989
1988
1986
1985
1984
1985
1985
1986
1986
1986
1986
1985
1984
1983
1982
1981
1980
1985
2001
2034
2074
2109
2119
2098
2053
2005
1970
1958
1964
1976
1985
1988
1987
1986
1985
1984
1983
1981
1979
1979
1980
1982
1984
1985
1986
1986
1985
1984
1983
1982
1983
1985
1986
1987
1987
1987
1986
1987
1988
1989
1990
1990
1990
1991
1991
1991
1992
1992
1992
1992
1994
1996
1998
2000
2001
2002
2003
2003
2004
2005
2006
2007
2008
2008
2007
2006
2005
2003
2002
1999
1996
1994
1992
1990
1989
1989
1988
1987
1986
1984
1983
1983
1983
1984
1984
1984
1984
1984
1983
1983
1983
1985
1987
1988
1989
1988
1987
1985
1985
1985
1986
1986
1987
1987
1987
1987
1987
1987
1986
1986
1987
1988
1989
1990
1990
1990
1989
1987
1985
1984
1984
1985
1987
1989
1989
1989
1988
1988
1988
1988
1987
1986
1985
1985
1986
1986
1986
1985
1984
1983
1984
1986
1989
1992
1994
1994
1994
1993
1992
1992
1992
1991
1990
1988
1986
1986
1987
1987
1987
1986
1984
1984
1984
1986
1987
1988
1987
1984
1982
1981
1991
2015
2053
2093
2117
2111
2075
2026
1983
1961
1963
1976
1987
1991
1989
1985
1984
1984
1985
1985
1985
1986
1986
1987
1988
1988
1987
1987
1986
1987
1987
1988
1989
1990
1990
1990
1990
1990
1991
1991
1992
1993
1995
1995
1996
1996
1996
1996
1996
1997
1998
1999
2001
2003
2005
2007
2008
2008
2008
2007
2007
2008
2010
2012
2014
2015
2014
2013
2011
2009
2008
2006
2004
2001
1999
1997
1995
1993
1993
1992
1991
1991
1990
1989
1989
1989
1989
1991
1992
1992
1992
1990
1989
1988
1989
1990
1992
1993
1993
1992
1991
1990
1991
1992
1993
1993
1993
1992
1991
1990
1990
1990
1990
1989
1990
1990
1990
1990
1990
1989
1988
1988
1989
1988
1988
1987
1986
1985
1985
1985
1985
1985
1985
1985
1985
1985
1985
1984
1983
1982
1981
1980
1980
1980
1981
1982
1983
1984
1984
1985
1985
1985
1985
1984
1983
1982
1980
1978
1976
1975
1974
1974
1975
1976
1977
1977
1976
1974
1972
1970
1969
1975
1991
2021
2056
2083
2088
2063
2019
1973
1943
1937
1948
1963
1972
1974
1971
1967
1965
1965
1965
1966
1966
1967
1967
1966
1965
1964
1963
1964
1964
1965
1965
1966
1965
1965
1965
1965
1964
1964
1963
1964
1965
1966
1967
1967
1966
1965
1964
1964
1965
1967
1970
1972
1974
1975
1975
1975
1974
1974
1975
1976
1978
1979
1980
1980
1980
1980
1979
1978
1977
1974
1971
1967
1964
1960
1957
1953
1949
1946
1944
1943
1944
1945
1946
1946
1944
1942
1940
1939
1939
1940
1941
1941
1941
1940
1939
1939
1940
1940
1941
1942
1942
1942
1942
1941
1941
1941
1941
1940
1940
1940
1941
1942
1943
1943
1942
1941
1941
1941
1941
1941
1942
1942
1941
1941
1940
1940
1939
1940
1940
1940
1939
1939
1939
1940
1940
1939
1938
1938
1939
1940
1942
1944
1946
1947
1948
1947
1944
1942
1940
1939
1939
1940
1941
1941
1941
1940
1940
1939
1939
1939
1938
1938
1937
1938
1945
1964
1994
2030
2056
2059
2035
1992
1947
1918
1912
1921
1934
1943
1946
1945
1945
1945
1945
1944
1944
1943
1942
1943
1944
1946
1949
1951
1951
1950
1948
1947
1947
1948
1950
1951
1952
1954
1955
1957
1957
1957
1956
1957
1958
1959
1961
1962
1963
1964
1965
1967
1968
1970
1971
1971
1973
1975
1977
1979
1981
1982
1983
1983
1984
1985
1986
1986
1985
1983
1981
1978
1975
1972
1970
1967
1965
1964
1963
1963
1963
1963
1962
1962
1961
1961
1961
1963
1964
1966
1966
1965
1964
1963
1964
1965
1967
1969
1971
1971
1971
1970
1970
1970
1971
1973
1974
1974
1974
1974
1974
1974
1975
1976
1977
1978
1979
1979
1979
1979
1978
1978
1977
1977
1978
1979
1980
1982
1983
1983
1982
1981
1980
1980
1982
1983
1983
1982
1981
1980
1979
1978
1978
1978
1978
1979
1980
1981
1982
1981
1981
1981
1982
1984
1987
1989
1991
1991
1990
1988
1985
1983
1982
1982
1982
1983
1984
1985
1986
1987
1987
1986
1984
1982
1980
1979
1986
2007
2044
2088
2123
2131
2106
2056
2006
1972
1963
1971
1983
1990
1990
1987
1984
1982
1982
1983
1985
1986
1988
1988
1988
1987
1986
1986
1987
1988
1989
1989
1989
1989
1989
1989
1989
1989
1989
1990
1991
1992
1993
1994
1994
1994
1994
1994
1995
1995
1995
1996
1997
1999
2001
2002
2002
2002
2002
2002
2003
2005
2006
2007
2007
2006
2006
2005
2005
2004
2003
2002
2000
1998
1995
1992
1989
1987
1986
1985
1986
1986
1987
1988
1987
1986
1985
1984
1984
1985
1987
1988
1988
1988
1987
1987
1986
1986
1986
1987
1988
1989
1991
1991
1990
1989
1988
1987
1987
1987
1988
1989
1989
1989
1989
1988
1987
1986
1986
1987
1988
1990
1991
1992
1991
1991
1990
1989
1989
1989
1990
1991
1991
1991
1990
1989
1989
1989
1989
1988
1988
1988
1988
1988
1988
1988
1987
1987
1987
1988
1991
1994
1996
1997
1996
1995
1992
1989
1987
1986
1986
1988
1989
1989
1988
1986
1985
1985
1985
1985
1983
1982
1981
1980
1981
1991
2015
2051
2092
2117
2114
2080
2030
1985
1961
1959
1970
1980
1984
1983
1980
1979
1979
1979
1979
1978
1979
1979
1980
1980
1980
1980
1979
1979
1978
1978
1977
1977
1977
1978
1980
1982
1982
1982
1981
1980
1980
1981
1982
1983
1983
1984
1984
1985
1986
1987
1987
1987
1987
1988
1990
1992
1994
1996
1997
1997
1997
1997
1997
1999
2000
2001
2000
1999
1997
1993
1989
1984
1981
1979
1977
1977
1976
1975
1973
1972
1971
1971
1971
1971
1971
1971
1972
1972
1972
1972
1971
1971
1972
1973
1974
1974
1973
1973
1972
1972
1972
1972
1972
1972
1973
1975
1976
1977
1976
1975
1975
1974
1974
1974
1973
1973
1973
1974
1976
1976
1976
1974
1974
1973
1974
1975
1976
1977
1977
1976
1975
1973
1972
1972
1973
1975
1978
1981
1983
1984
1984
1983
1982
1980
1979
1978
1977
1976
1975
1975
1975
1976
1977
1978
1979
1978
1977
1975
1973
1974
1981
1999
2030
2067
2097
2105
2083
2040
1992
1958
1947
1955
1969
1981
1985
1984
1983
1982
1980
1979
1978
1978
1978
1979
1980
1981
1982
1983
1984
1985
1985
1984
1984
1985
1986
1987
1988
1988
1988
1987
1986
1987
1989
1991
1992
1993
1993
1994
1995
1997
1997
1997
1996
1997
1999
2002
2005
2006
2007
2006
2005
2005
2007
2009
2012
2013
2013
2011
2009
2007
2004
2000
1995
1992
1989
1987
1986
1985
1983
1981
1980
1981
1982
1983
1983
1982
1981
1981
1982
1983
1983
1983
1982
1982
1982
1983
1984
1985
1985
1984
1983
1983
1983
1984
1985
1986
1987
1987
1986
1986
1986
1986
1985
1985
1984
1985
1986
1987
1987
1985
1984
1983
1984
1985
1987
1987
1987
1985
1983
1982
1981
1981
1982
1982
1983
1984
1985
1986
1986
1985
1983
1982
1982
1982
1983
1983
1982
1980
1978
1977
1978
1979
1982
1984
1986
1987
1987
1988
1987
1985
1983
1980
1979
1980
1981
1982
1982
1982
1981
1981
1981
1980
1980
1979
1978
1976
1975
1973
1976
1993
2028
2077
2123
2144
2130
2083
2026
1980
1957
1957
1967
1977
1979
1979
1977
1976
1975
1975
1975
1975
1975
1975
1975
1975
1976
1976
1977
1977
1977
1976
1975
1975
1976
1977
1978
1979
1980
1980
1979
1978
1976
1976
1976
1978
1979
1981
1982
1983
1984
1984
1983
1983
1983
1983
1985
1988
1990
1991
1991
1990
1989
1989
1991
1992
1994
1994
1993
1990
1988
1986
1984
1983
1982
1981
1980
1980
1979
1979
1978
1977
1975
1974
1973
1973
1975
1976
1977
1978
1977
1977
1977
1977
1977
1977
1977
1978
1978
1978
1978
1978
1977
1977
1976
1976
1977
1977
1978
1978
1978
1978
1977
1976
1976
1977
1978
1977
1977
1977
1977
1977
1978
1978
1978
1977
1977
1978
1978
1978
1978
1978
1978
1979
1978
1977
1976
1976
1977
1978
1980
1980
1980
1978
1977
1976
1976
1978
1980
1982
1983
1982
1980
1977
1976
1975
1975
1976
1977
1978
1980
1982
1984
1985
1986
1985
1985
1986
1986
1987
1986
1984
1981
1978
1977
1978
1979
1979
1979
1979
1979
1978
1978
1977
1975
1974
1974
1981
2003
2042
2085
2119
2124
2096
2047
1996
1963
1955
1963
1974
1981
1981
1979
1977
1976
1976
1977
1977
1977
1977
1977
1977
1977
1977
1977
1978
1979
1980
1981
1980
1979
1978
1977
1977
1978
1979
1981
1983
1983
1984
1985
1985
1985
1985
1985
1986
1987
1989
1990
1990
1990
1991
1991
1991
1991
1991
1992
1993
1995
1997
1997
1997
1996
1995
1994
1994
1995
1995
1993
1990
1986
1982
1979
1977
1976
1975
1975
1975
1975
1974
1974
1974
1974
1974
1973
1973
1974
1974
1974
1975
1975
1974
1973
1972
1971
1971
1973
1974
1976
1976
1975
1973
1971
1970
1969
1970
1972
1973
1975
1975
1974
1972
1970
1970
1970
1972
1974
1975
1975
1974
1972
1970
1969
1968
1969
1969
1970
1972
1973
1973
1973
1973
1972
1971
1971
1972
1973
1973
1973
1972
1971
1970
1969
1971
1972
1973
1974
1973
1973
1973
1973
1973
1974
1973
1972
1972
1971
1971
1971
1970
1971
1971
1973
1976
1979
1982
1983
1983
1983
1982
1982
1981
1980
1978
1975
1972
1971
1972
1974
1977
1979
1980
1979
1977
1975
1972
1971
1972
1977
1991
2018
2053
2088
2105
2092
2053
2003
1962
1943
1948
1963
1976
1980
1978
1975
1974
1975
1977
1978
1978
1977
1976
1976
1976
1976
1977
1978
1978
1979
1978
1978
1977
1977
1978
1979
1980
1980
1981
1981
1982
1983
1984
1984
1984
1984
1984
1985
1987
1988
1990
1990
1990
1989
1989
1990
1992
1995
1998
2000
2000
1999
1998
1998
1998
1999
2000
2001
2000
1998
1996
1992
1987
1983
1979
1976
1974
1972
1971
1970
1969
1968
1967
1967
1967
1967
1967
1968
1968
1967
1966
1965
1965
1965
1965
1965
1966
1967
1968
1967
1967
1967
1967
1966
1966
1966
1966
1967
1968
1968
1968
1968
1967
1966
1965
1965
1966
1966
1967
1966
1965
1964
1963
1963
1964
1964
1964
1963
1963
1963
1963
1963
1962
1961
1960
1961
1961
1962
1962
1962
1961
1961
1961
1961
1960
1960
1959
1958
1958
1959
1959
1960
1961
1961
1962
1962
1963
1963
1964
1964
1965
1965
1965
1963
1960
1956
1954
1953
1953
1955
1957
1957
1956
1955
1954
1953
1953
1952
1950
1950
1952
1966
1995
2039
2081
2105
2096
2055
2002
1955
1931
1930
1941
1951
1955
1954
1953
1952
1952
1951
1949
1948
1947
1948
1948
1949
1950
1950
1949
1949
1949
1949
1949
1950
1950
1950
1951
1952
1953
1953
1953
1953
1952
1952
1952
1953
1954
1956
1956
1957
1957
1957
1958
1959
1959
1960
1961
1963
1964
1965
1966
1965
1965
1965
1965
1967
1969
1970
1970
1969
1967
1965
1964
1962
1960
1958
1956
1954
1954
1953
1953
1953
1953
1953
1952
1952
1953
1954
1955
1955
1955
1955
1954
1954
1955
1955
1956
1956
1956
1956
1957
1958
1958
1958
1958
1959
1960
1961
1962
1961
1960
1960
1960
1961
1962
1962
1962
1961
1960
1961
1962
1963
1964
1964
1964
1964
1963
1964
1966
1967
1968
1967
1965
1963
1963
1963
1965
1967
1968
1968
1968
1967
1967
1967
1967
1967
1968
1969
1970
1971
1971
1971
1970
1970
1970
1969
1969
1968
1969
1969
1971
1973
1975
1976
1978
1978
1978
1979
1979
1980
1981
1980
1979
1976
1974
1973
1973
1974
1976
1977
1977
1977
1977
1976
1975
1973
1971
1970
1976
1996
2032
2077
2116
2130
2109
2061
2008
1969
1956
1961
1973
1981
1981
1978
1976
1977
1978
1979
1980
1979
1978
1977
1977
1977
1978
1978
1980
1981
1982
1983
1983
1982
1981
1980
1980
1981
1982
1983
1984
1985
1986
1986
1985
1985
1985
1986
1988
1990
1992
1993
1993
1993
1992
1993
1993
1994
1995
1996
1997
1998
1999
2000
2000
2000
2000
1999
1999
1999
1998
1998
1996
1994
1991
1989
1987
1986
1984
1983
1981
1981
1980
1981
1982
1982
1982
1982
1981
1981
1981
1981
1982
1983
1983
1983
1983
1983
1982
1982
1982
1983
1983
1984
1985
1985
1983
1982
1982
1982
1984
1985
1985
1984
1983
1982
1981
1982
1983
1984
1986
1986
1985
1984
1983
1983
1983
1984
1985
1985
1985
1985
1985
1985
1984
1984
1984
1984
1985
1986
1986
1987
1986
1986
1985
1984
1984
1984
1985
1985
1986
1986
1986
1985
1985
1985
1985
1985
1986
1985
1985
1984
1984
1984
1986
1988
1989
1989
1989
1990
1991
1992
1992
1992
1990
1988
1986
1986
1985
1985
1985
1985
1985
1985
1985
1985
1984
1983
1982
1981
1984
1998
2027
2066
2105
2122
2108
2066
2016
1976
1960
1964
1977
1987
1990
1987
1984
1982
1981
1982
1983
1983
1984
1984
1985
1985
1985
1985
1985
1985
1985
1985
1985
1986
1986
1985
1985
1985
1985
1987
1988
1990
1990
1990
1989
1989
1990
1991
1993
1994
1994
1993
1994
1994
1995
1996
1996
1997
1998
1999
2001
2002
2003
2004
2004
2003
2003
2002
2002
2002
2002
2001
1999
1997
1994
1992
1991
1989
1988
1986
1985
1983
1982
1982
1982
1982
1982
1982
1982
1983
1983
1984
1984
1983
1982
1980
1979
1980
1980
1982
1983
1984
1984
1984
1983
1982
1982
1983
1983
1983
1983
1982
1982
1983
1984
1985
1984
1981
1979
1977
1977
1977
1978
1978
1979
1978
1979
1978
1978
1978
1977
1977
1977
1977
1977
1976
1976
1976
1975
1975
1976
1976
1976
1976
1976
1976
1975
1974
1972
1972
1972
1973
1973
1973
1972
1972
1971
1971
1971
1971
1971
1970
1971
1972
1973
1975
1976
1976
1976
1977
1978
1980
1980
1979
1976
1973
1970
1968
1966
1966
1967
1968
1969
1970
1969
1967
1966
1965
1967
1974
1992
2023
2058
2086
2090
2065
2020
1973
1943
1937
1948
1963
1973
1974
1971
1968
1967
1966
1967
1968
1969
1970
1970
1969
1968
1967
1966
1966
1967
1968
1970
1972
1973
1973
1972
1971
1971
1971
1972
1973
1974
1975
1976
1976
1976
1975
1975
1975
1977
1979
1981
1982
1983
1983
1982
1982
1983
1984
1986
1988
1990
1991
1992
1993
1994
1994
1993
1991
1989
1987
1985
1983
1979
1976
1972
1970
1968
1967
1967
1966
1965
1964
1964
1964
1964
1963
1963
1962
1962
1962
1963
1963
1963
1964
1964
1965
1966
1966
1966
1966
1965
1965
1966
1966
1966
1967
1967
1968
1969
1969
1970
1971
1971
1971
1970
1970
1970
1970
1971
1972
1972
1972
1972
1972
1971
1971
1971
1971
1971
1972
1973
1973
1973
1972
1972
1971
1972
1972
1973
1973
1973
1973
1973
1974
1974
1973
1973
1973
1974
1976
1978
1981
1984
1985
1985
1984
1981
1979
1978
1977
1978
1979
1980
1981
1981
1981
1980
1980
1979
1978
1977
1977
1976
1977
1987
2009
2045
2083
2108
2106
2075
2028
1984
1959
1957
1968
1980
1986
1986
1984
1982
1981
1981
1981
1981
1980
1980
1980
1981
1983
1985
1986
1986
1985
1984
1983
1984
1985
1986
1988
1989
1990
1989
1989
1989
1989
1990
1991
1992
1992
1993
1994
1995
1997
1997
1997
1997
1997
1998
2000
2001
2003
2004
2005
2005
2005
2006
2006
2007
2008
2008
2008
2008
2007
2005
2002
1999
1996
1993
1991
1990
1989
1988
1987
1986
1985
1984
1984
1984
1984
1985
1986
1986
1986
1986
1985
1985
1984
1985
1986
1987
1988
1989
1989
1989
1989
1989
1989
1988
1988
1988
1988
1988
1988
1987
1987
1987
1987
1988
1989
1989
1989
1988
1987
1986
1986
1986
1986
1987
1987
1987
1987
1987
1987
1986
1986
1986
1986
1987
1988
1989
1990
1990
1991
1990
1989
1987
1986
1986
1986
1988
1989
1989
1989
1989
1989
1990
1992
1994
1996
1997
1998
1997
1995
1993
1990
1988
1987
1988
1989
1990
1991
1992
1992
1992
1990
1989
1987
1985
1985
1992
2011
2046
2087
2119
2126
2102
2055
2007
1975
1966
1973
1986
1993
1995
1992
1990
1989
1988
1988
1989
1989
1990
1990
1990
1990
1989
1989
1989
1990
1991
1992
1993
1992
1992
1991
1991
1992
1993
1994
1994
1995
1995
1995
1995
1994
1994
1995
1996
1998
2000
2001
2002
2001
2001
2000
2000
2001
2003
2005
2007
2008
2009
2009
2009
2009
2009
2008
2008
2007
2006
2005
2002
1999
1996
1993
1990
1989
1988
1987
1987
1987
1986
1986
1985
1985
1985
1985
1984
1985
1985
1987
1989
1989
1989
1988
1986
1986
1986
1987
1988
1990
1990
1990
1989
1988
1987
1987
1988
1989
1989
1990
1990
1990
1989
1989
1988
1988
1988
1989
1989
1989
1989
1988
1988
1988
1988
1989
1989
1989
1989
1990
1990
1989
1988
1987
1986
1986
1987
1988
1988
1988
1989
1989
1990
1991
1993
1994
1994
1993
1991
1990
1989
1988
1988
1988
1988
1987
1987
1988
1990
1991
1992
1991
1988
1985
1982
1982
1989
2009
2046
2088
2120
2125
2097
2048
2001
1970
1964
1973
1987
1994
1995
1992
1989
1988
1987
1987
1988
1988
1989
1990
1990
1990
1990
1989
1988
1988
1989
1990
1991
1991
1991
1991
1991
1991
1991
1991
1991
1992
1993
1993
1993
1993
1992
1993
1993
1995
1996
1998
1999
2001
2002
2003
2004
2003
2002
2002
2003
2005
2007
2009
2010
2009
2008
2007
2006
2004
2002
1999
1996
1993
1990
1987
1984
1983
1981
1981
1980
1979
1978
1977
1976
1976
1976
1976
1976
1977
1976
1976
1976
1977
1977
1977
1977
1976
1976
1975
1975
1976
1976
1976
1976
1976
1975
1974
1974
1973
1974
1975
1976
1977
1977
1976
1975
1974
1973
1974
1975
1975
1975
1975
1975
1974
1973
1971
1970
1970
1971
1973
1974
1975
1975
1974
1973
1973
1973
1974
1976
1978
1980
1981
1980
1977
1974
1972
1971
1971
1971
1970
1971
1971
1971
1971
1971
1970
1968
1967
1966
1968
1975
1994
2025
2061
2088
2091
2065
2021
1974
1944
1938
1949
1964
1974
1976
1974
1972
1971
1972
1973
1973
1972
1972
1971
1972
1972
1973
1973
1973
1973
1974
1975
1976
1977
1977
1976
1976
1976
1976
1977
1978
1979
1980
1981
1982
1983
1984
1985
1986
1986
1987
1987
1988
1990
1991
1992
1993
1994
1997
1999
2002
2004
2005
2005
2004
2004
2004
2003
2002
2000
1997
1993
1989
1985
1982
1979
1977
1975
1974
1973
1973
1974
1974
1973
1972
1971
1971
1971
1972
1973
1973
1974
1974
1974
1974
1974
1974
1974
1975
1976
1977
1978
1978
1978
1978
1978
1978
1978
1979
1979
1980
1981
1982
1982
1981
1981
1981
1981
1982
1982
1983
1983
1983
1983
1982
1981
1980
1980
1981
1982
1982
1983
1982
1981
1980
1980
1979
1980
1981
1983
1984
1986
1988
1990
1991
1990
1988
1985
1983
1982
1982
1983
1984
1984
1984
1983
1983
1984
1984
1984
1984
1982
1980
1978
1982
1997
2028
2070
2110
2127
2113
2070
2019
1978
1960
1963
1975
1985
1988
1988
1986
1985
1985
1985
1985
1985
1985
1984
1984
1984
1984
1985
1986
1987
1987
1986
1986
1986
1987
1989
1990
1991
1991
1990
1989
1989
1989
1989
1990
1992
1993
1995
1996
1996
1996
1995
1995
1996
1997
1998
2000
2002
2003
2004
2004
2003
2002
2001
2002
2003
2005
2006
2006
2004
2002
1999
1996
1992
1990
1989
1989
1988
1988
1986
1984
1983
1982
1981
1982
1983
1984
1985
1986
1986
1986
1985
1984
1983
1983
1983
1984
1985
1985
1985
1985
1985
1985
1985
1985
1985
1985
1985
1985
1985
1986
1986
1986
1986
1986
1986
1986
1986
1987
1987
1986
1985
1985
1984
1984
1984
1985
1985
1985
1985
1985
1985
1984
1984
1984
1985
1986
1986
1987
1987
1986
1986
1985
1986
1986
1986
1985
1985
1985
1985
1985
1984
1983
1983
1984
1986
1989
1991
1993
1993
1993
1992
1990
1988
1986
1985
1984
1984
1984
1984
1984
1984
1984
1984
1985
1986
1987
1986
1983
1981
1984
2004
2043
2093
2137
2153
2130
2079
2023
1981
1966
1971
1982
1989
1990
1987
1986
1986
1986
1986
1985
1985
1984
1984
1984
1985
1986
1987
1988
1988
1988
1987
1987
1987
1988
1988
1989
1990
1990
1990
1990
1989
1989
1989
1990
1991
1992
1993
1993
1993
1993
1994
1995
1996
1997
1998
1998
1999
2000
2001
2001
2001
2001
2001
2001
2002
2003
2003
2004
2003
2001
1999
1997
1995
1994
1993
1992
1990
1989
1989
1989
1989
1988
1988
1987
1987
1987
1988
1989
1989
1988
1988
1987
1987
1987
1988
1988
1989
1988
1988
1987
1987
1987
1987
1988
1989
1990
1990
1990
1989
1988
1988
1988
1988
1989
1989
1990
1990
1991
1991
1991
1991
1990
1989
1989
1990
1991
1992
1993
1992
1992
1990
1990
1989
1989
1990
1991
1991
1991
1991
1991
1991
1991
1991
1991
1991
1991
1991
1992
1992
1992
1992
1991
1991
1990
1991
1991
1992
1992
1992
1991
1991
1991
1992
1994
1996
1997
1998
1998
1997
1997
1998
1998
1997
1996
1995
1994
1993
1992
1992
1992
1992
1993
1993
1993
1992
1991
1990
1989
1988
1991
2005
2035
2078
2118
2138
2125
2083
2032
1990
1971
1972
1984
1994
1997
1996
1994
1993
1993
1993
1992
1992
1991
1991
1992
1993
1994
1994
1995
1995
1995
1994
1994
1994
1994
1995
1997
1998
1999
1999
1999
1998
1998
1998
1999
2001
2003
2003
2003
2003
2004
2004
2005
2006
2007
2009
2010
2011
2013
2013
2014
2014
2015
2016
2016
2017
2017
2017
2017
2016
2015
2012
2009
2007
2005
2004
2002
2001
2000
1998
1997
1997
1998
1998
1998
1997
1997
1996
1997
1997
1997
1997
1998
1999
2000
2000
2000
2000
1999
1998
1998
1998
1998
1999
2000
2000
2001
2002
2002
2002
2001
2001
2000
2000
1999
2000
2000
2001
2002
2002
2002
2001
2001
2000
2000
2001
2002
2002
2002
2001
2001
2000
2001
2001
2002
2002
2003
2003
2003
2003
2002
2001
2001
2001
2002
2002
2003
2003
2002
2002
2001
2001
2001
2001
2001
2002
2002
2003
2002
2002
2001
2000
1999
1998
1999
2000
2002
2003
2003
2003
2001
2000
2001
2003
2005
2007
2008
2008
2007
2007
2006
2006
2005
2004
2003
2002
2001
2001
2001
2001
2001
2000
1999
1998
1998
1998
1998
1997
1996
1994
1997
2012
2043
2084
2121
2136
2119
2076
2026
1989
1974
1979
1990
1999
2000
1998
1996
1996
1997
1997
1997
1995
1993
1992
1992
1993
1995
1996
1997
1997
1996
1995
1995
1995
1995
1997
1998
1999
1999
1999
1999
1999
1998
1998
1998
1999
2000
2000
2001
2001
2001
2001
2001
2002
2003
2004
2005
2006
2007
2009
2010
2010
2010
2010
2011
2011
2012
2012
2012
2011
2009
2006
2003
2000
1998
1996
1995
1994
1992
1990
1988
1987
1987
1987
1987
1986
1986
1985
1985
1985
1985
1986
1986
1985
1984
1984
1984
1984
1985
1986
1986
1986
1986
1985
1985
1985
1985
1985
1985
1985
1985
1985
1985
1986
1986
1986
1986
1987
1987
1986
1985
1984
1983
1982
1982
1983
1985
1986
1987
1987
1985
1983
1982
1982
1983
1984
1985
1984
1984
1983
1982
1982
1982
1982
1982
1982
1982
1983
1983
1984
1984
1983
1983
1982
1981
1982
1982
1983
1983
1983
1982
1980
1980
1980
1980
1981
1982
1982
1982
1982
1981
1980
1980
1980
1981
1982
1982
1981
1982
1983
1985
1986
1987
1987
1987
1987
1987
1987
1987
1987
1985
1983
1981
1980
1979
1979
1980
1980
1980
1980
1981
1980
1979
1977
1974
1973
1977
1991
2021
2060
2098
2114
2100
2059
2010
1971
1955
1958
1970
1980
1982
1980
1977
1976
1975
1976
1976
1976
1976
1976
1976
1977
1978
1978
1978
1977
1978
1978
1979
1980
1980
1979
1979
1979
1980
1981
1982
1983
1983
1983
1983
1982
1982
1983
1984
1986
1988
1988
1989
1989
1989
1989
1990
1991
1993
1995
1996
1998
1999
1999
1999
1999
1999
2000
2000
2000
1999
1997
1994
1991
1989
1987
1985
1983
1982
1981
1980
1980
1979
1979
1979
1978
1977
1976
1977
1977
1979
1979
1979
1978
1978
1977
1978
1978
1978
1978
1978
1978
1978
1979
1980
1980
1980
1980
1980
1980
1980
1981
1982
1982
1982
1981
1980
1980
1980
1981
1981
1982
1981
1981
1980
1980
1980
1981
1981
1980
1979
1977
1977
1978
1980
1982
1982
1981
1980
1978
1978
1979
1979
1979
1978
1977
1978
1979
1980
1980
1980
1979
1978
1978
1979
1979
1979
1979
1979
1980
1982
1984
1984
1982
1981
1979
1979
1979
1979
1980
1980
1981
1982
1984
1985
1985
1985
1984
1984
1985
1986
1988
1988
1987
1984
1981
1979
1979
1980
1982
1983
1982
1981
1979
1978
1977
1977
1976
1976
1975
1977
1989
2014
2051
2089
2110
2103
2068
2022
1981
1959
1958
1967
1976
1979
1977
1975
1975
1976
1978
1980
1980
1979
1978
1976
1975
1975
1976
1977
1978
1978
1978
1978
1978
1978
1977
1976
1974
1973
1973
1975
1977
1979
1979
1979
1979
1980
1980
1981
1981
1982
1982
1982
1982
1982
1982
1982
1982
1983
1984
1985
1987
1989
1991
1993
1993
1992
1991
1990
1989
1989
1989
1988
1986
1982
1977
1971
1966
1963
1962
1963
1965
1966
1966
1965
1963
1962
1962
1962
1963
1964
1964
1964
1963
1962
1960
1958
1957
1958
1960
1964
1967
1968
1969
1970
1969
1968
1966
1964
1962
1962
1963
1965
1966
1966
1967
1967
1966
1965
1963
1962
1963
1964
1965
1966
1966
1966
1966
1967
1967
1968
1968
1969
1968
1966
1962
1959
1959
1961
1964
1966
1966
1964
1962
1962
1963
1964
1965
1963
1960
1958
1958
1961
1967
1973
1977
1978
1977
1976
1974
1972
1969
1967
1964
1961
1960
1960
1961
1963
1964
1965
1966
1967
1967
1965
1962
1959
1960
1972
1999
2039
2076
2093
2079
2037
1984
1941
1923
1929
1947
1964
1972
1971
1968
1966
1964
1964
1964
1964
1965
1965
1965
1966
1965
1964
1963
1963
1962
1962
1964
1966
1969
1970
1971
1970
1969
1969
1969
1968
1967
1966
1967
1970
1974
1976
1975
1973
1971
1973
1977
1981
1983
1984
1985
1985
1985
1987
1989
1991
1993
1995
1995
1996
1996
1997
1997
1997
1995
1991
1986
1979
1973
1966
1960
1957
1957
1957
1956
1953
1950
1946
1945
1946
1949
1950
1951
1950
1949
1949
1950
1954
1958
1959
1958
1953
1950
1949
1953
1957
1959
1958
1956
1954
1956
1960
1965
1967
1965
1961
1957
1957
1959
1963
1964
1964
1961
1957
1954
1954
1957
1962
1966
1967
1963
1958
1955
1953
1955
1958
1959
1960
1960
1960
1959
1959
1959
1959
1962
1964
1965
1963
1959
1956
1954
1954
1957
1959
1958
1955
1953
1952
1954
1957
1960
1962
1962
1962
1963
1965
1966
1965
1965
1964
1964
1963
1962
1961
1960
1960
1960
1959
1958
1957
1957
1958
1959
1958
1956
1954
1953
1952
1955
1966
1993
2036
2081
2109
2105
2067
2013
1965
1941
1941
1955
1967
1969
1965
1958
1954
1953
1955
1959
1962
1963
1963
1962
1961
1961
1963
1963
1963
1963
1963
1963
1963
1963
1962
1961
1959
1960
1962
1966
1969
1970
1969
1967
1965
1965
1966
1967
1968
1967
1967
1967
1969
1970
1972
1972
1971
1970
1970
1972
1974
1977
1978
1979
1979
1980
1980
1978
1976
1973
1971
1971
1970
1967
1963
1959
1958
1959
1961
1962
1962
1960
1957
1954
1952
1952
1952
1953
1954
1955
1955
1955
1955
1956
1955
1954
1953
1952
1954
1957
1960
1959
1957
1953
1949
1947
1948
1952
1955
1956
1956
1955
1954
1953
1953
1952
1950
1948
1947
1948
1950
1951
1952
1951
1952
1953
1954
1954
1953
1951
1949
1949
1950
1950
1949
1949
1949
1950
1951
1952
1952
1952
1951
1951
1949
1948
1947
1947
1949
1952
1954
1954
1952
1948
1946
1945
1948
1951
1953
1953
1950
1947
1945
1947
1951
1956
1962
1965
1965
1960
1954
1948
1946
1947
1949
1950
1949
1949
1950
1953
1956
1957
1955
1950
1946
1945
1946
1954
1974
2009
2052
2085
2092
2065
2016
1963
1930
1922
1933
1949
1959
1960
1957
1952
1948
1947
1947
1949
1951
1952
1953
1954
1955
1955
1953
1951
1950
1952
1955
1957
1958
1956
1955
1956
1958
1960
1961
1961
1960
1960
1962
1965
1968
1968
1967
1963
1961
1962
1967
1972
1977
1977
1974
1971
1969
1971
1977
1982
1986
1987
1987
1986
1985
1984
1984
1983
1982
1982
1980
1978
1976
1974
1971
1969
1968
1967
1967
1966
1966
1964
1963
1963
1964
1964
1965
1964
1963
1963
1965
1966
1967
1968
1967
1968
1969
1970
1971
1970
1969
1968
1969
1970
1972
1973
1973
1974
1974
1972
1971
1969
1969
1971
1974
1975
1972
1969
1967
1969
1975
1981
1984
1982
1976
1971
1968
1968
1972
1976
1980
1980
1977
1973
1970
1970
1971
1973
1975
1977
1979
1981
1981
1978
1975
1972
1972
1974
1977
1980
1982
1982
1981
1979
1977
1975
1975
1976
1978
1980
1981
1981
1980
1978
1977
1976
1976
1978
1981
1982
1983
1985
1987
1989
1991
1990
1988
1986
1985
1986
1988
1990
1989
1986
1983
1980
1979
1980
1983
1985
1986
1986
1985
1983
1980
1978
1976
1977
1984
2002
2034
2074
2108
2118
2097
2053
2005
1970
1957
1962
1974
1982
1984
1984
1982
1980
1978
1975
1973
1973
1975
1977
1978
1977
1975
1975
1975
1977
1979
1981
1981
1980
1979
1978
1978
1978
1978
1979
1980
1982
1984
1984
1984
1982
1981
1981
1982
1984
1986
1989
1991
1993
1994
1995
1995
1995
1997
1998
2000
2001
2002
2004
2005
2005
2005
2005
2006
2008
2009
2008
2005
2001
1995
1990
1986
1984
1983
1982
1981
1979
1978
1978
1978
1978
1977
1975
1974
1974
1975
1976
1976
1975
1974
1974
1974
1973
1973
1974
1976
1977
1978
1978
1977
1976
1974
1973
1972
1973
1977
1982
1986
1987
1984
1980
1977
1976
1977
1978
1978
1977
1977
1979
1980
1981
1981
1980
1979
1978
1978
1978
1979
1980
1980
1979
1979
1977
1974
1972
1971
1971
1973
1975
1976
1976
1975
1972
1970
1969
1969
1969
1970
1972
1972
1972
1970
1969
1970
1971
1973
1975
1976
1976
1974
1972
1970
1966
1964
1963
1965
1967
1970
1971
1970
1969
1967
1965
1963
1963
1963
1969
1985
2015
2052
2085
2094
2073
2029
1979
1943
1931
1939
1955
1968
1972
1971
1968
1965
1963
1963
1964
1966
1967
1969
1969
1969
1968
1966
1965
1965
1966
1967
1968
1969
1969
1969
1969
1969
1969
1970
1972
1974
1976
1977
1978
1979
1979
1980
1981
1982
1983
1984
1985
1985
1986
1986
1987
1988
1990
1992
1995
1997
1999
2000
2002
2002
2002
2001
1999
1997
1995
1993
1990
1987
1983
1980
1976
1974
1971
1970
1968
1966
1964
1963
1963
1963
1964
1964
1965
1966
1966
1967
1968
1968
1968
1968
1967
1967
1966
1965
1965
1965
1965
1967
1968
1970
1970
1971
1972
1972
1971
1970
1969
1969
1969
1970
1970
1970
1970
1969
1968
1969
1970
1971
1971
1970
1969
1969
1969
1970
1971
1971
1972
1973
1974
1975
1975
1974
1973
1973
1972
1972
1971
1971
1971
1971
1971
1970
1969
1968
1967
1967
1967
1966
1966
1965
1964
1962
1960
1958
1957
1955
1955
1956
1958
1960
1962
1964
1965
1965
1965
1964
1964
1964
1963
1961
1960
1957
1956
1955
1956
1958
1960
1961
1961
1961
1959
1957
1955
1953
1951
1950
1953
1966
1993
2033
2072
2092
2082
2044
1994
1954
1936
1939
1952
1963
1966
1964
1961
1959
1958
1958
1957
1958
1958
1958
1959
1959
1959
1959
1959
1959
1960
1961
1962
1962
1962
1961
1961
1962
1963
1965
1966
1968
1969
1969
1969
1969
1970
1970
1972
1974
1975
1975
1974
1974
1974
1974
1975
1976
1976
1976
1977
1978
1978
1979
1979
1978
1978
1979
1979
1980
1979
1978
1976
1972
1969
1967
1965
1964
1963
1962
1960
1959
1957
1956
1955
1954
1953
1954
1955
1955
1956
1956
1955
1955
1955
1956
1957
1959
1960
1961
1960
1959
1959
1958
1958
1959
1959
1959
1960
1960
1961
1961
1961
1961
1960
1960
1961
1961
1962
1963
1963
1963
1963
1962
1961
1961
1960
1960
1960
1960
1961
1961
1960
1960
1960
1960
1961
1961
1962
1963
1963
1963
1962
1962
1961
1961
1960
1960
1960
1960
1960
1961
1961
1961
1961
1961
1962
1963
1963
1964
1964
1965
1967
1969
1970
1970
1970
1969
1969
1970
1970
1970
1970
1969
1968
1967
1966
1964
1963
1962
1962
1962
1962
1962
1962
1962
1961
1960
1959
1960
1965
1980
2007
2042
2069
2077
2058
2019
1976
1946
1937
1945
1958
1967
1969
1967
1965
1964
1964
1965
1966
1966
1966
1966
1965
1964
1965
1965
1966
1967
1968
1968
1968
1968
1968
1969
1969
1970
1970
1969
1969
1968
1968
1968
1968
1969
1970
1971
1972
1974
1975
1976
1977
1978
1979
1979
1979
1979
1980
1982
1984
1986
1988
1988
1988
1988
1987
1987
1987
1987
1987
1985
1982
1977
1972
1967
1964
1962
1960
1959
1957
1955
1953
1952
1951
1950
1949
1949
1949
1949
1950
1950
1949
1947
1946
1945
1945
1946
1948
1949
1950
1951
1952
1952
1951
1951
1950
1949
1949
1950
1950
1951
1951
1951
1951
1951
1951
1950
1950
1950
1950
1950
1950
1950
1949
1949
1949
1950
1950
1951
1950
1949
1949
1948
1949
1949
1950
1950
1950
1950
1951
1952
1952
1951
1951
1950
1950
1950
1951
1952
1953
1955
1957
1960
1961
1962
1962
1963
1963
1964
1963
1962
1959
1957
1956
1956
1956
1956
1957
1957
1958
1958
1957
1956
1955
1953
1953
1955
1961
1978
2006
2040
2068
2076
2057
2017
1971
1938
1928
1937
1954
1966
1969
1967
1963
1962
1962
1963
1964
1965
1966
1967
1967
1967
1967
1966
1965
1965
1965
1966
1968
1969
1970
1969
1968
1968
1968
1969
1970
1972
1974
1977
1979
1979
1978
1975
1974
1974
1975
1978
1981
1983
1985
1987
1989
1990
1991
1992
1994
1996
1999
2001
2002
2002
2001
2000
1999
1997
1993
1990
1987
1985
1982
1979
1974
1970
1966
1965
1965
1966
1966
1965
1965
1965
1966
1967
1969
1969
1967
1965
1964
1963
1964
1965
1967
1967
1968
1970
1973
1975
1976
1975
1972
1970
1969
1970
1974
1978
1981
1982
1981
1980
1979
1978
1977
1975
1973
1974
1976
1981
1985
1989
1991
1992
1992
1991
1990
1988
1986
1985
1986
1988
1990
1992
1992
1992
1992
1991
1991
1990
1991
1993
1995
1996
1996
1995
1993
1991
1989
1987
1985
1983
1981
1979
1977
1974
1972
1969
1967
1968
1970
1973
1975
1975
1973
1971
1969
1970
1970
1968
1961
1950
1940
1933
1929
1929
1929
1926
1920
1913
1906
1903
1909
1930
1967
2012
2048
2060
2043
2000
1951
1913
1894
1892
1899
1906
1911
1914
1914
1914
1913
1914
1916
1919
1921
1920
1919
1919
1920
1924
1926
1927
1925
1922
1919
1918
1918
1920
1923
1925
1927
1928
1928
1928
1929
1930
1930
1930
1929
1928
1928
1931
1936
1942
1946
1947
1945
1942
1941
1943
1947
1952
1955
1954
1952
1950
1950
1953
1957
1960
1961
1959
1955
1951
1948
1946
1945
1945
1944
1943
1942
1939
1937
1935
1935
1937
1939
1942
1942
1940
1938
1937
1938
1939
1940
1940
1940
1941
1943
1945
1946
1946
1947
1948
1949
1949
1948
1947
1946
1948
1950
1952
1954
1955
1955
1954
1952
1951
1952
1955
1958
1959
1956
1951
1949
1951
1957
1963
1966
1965
1961
1958
1958
1961
1964
1967
1967
1965
1962
1959
1959
1962
1967
1970
1971
1969
1966
1965
1965
1966
1966
1965
1964
1966
1968
1970
1972
1972
1971
1969
1966
1963
1963
1965
1968
1972
1973
1972
1971
1973
1977
1980
1982
1981
1979
1978
1977
1976
1975
1975
1974
1973
1973
1973
1973
1972
1972
1971
1973
1974
1975
1975
1973
1970
1967
1971
1988
2023
2070
2113
2133
2116
2070
2016
1974
1956
1958
1968
1975
1977
1978
1979
1981
1981
1979
1976
1973
1971
1972
1973
1975
1976
1977
1977
1977
1979
1981
1983
1984
1985
1985
1986
1986
1984
1982
1981
1981
1983
1986
1989
1990
1990
1989
1990
1992
1995
1997
1998
1998
1997
1997
1998
1999
1999
1999
2000
2004
2007
2011
2012
2013
2013
2011
2009
2007
2005
2005
2006
2007
2006
2002
1998
1995
1994
1994
1992
1988
1986
1986
1989
1991
1991
1989
1988
1991
1993
1994
1993
1990
1990
1992
1995
1996
1995
1992
1991
1992
1994
1994
1992
1990
1989
1990
1993
1994
1993
1992
1991
1991
1990
1990
1989
1990
1992
1995
1996
1996
1993
1989
1987
1987
1988
1989
1988
1986
1984
1985
1988
1993
1997
1999
1998
1993
1986
1980
1978
1979
1981
1984
1985
1986
1987
1989
1990
1990
1989
1987
1986
1986
1988
1990
1991
1990
1988
1985
1983
1983
1986
1990
1992
1992
1990
1989
1989
1990
1993
1994
1994
1992
1991
1991
1991
1990
1989
1987
1987
1988
1991
1992
1992
1990
1986
1982
1979
1977
1976
1975
1976
1977
1979
1980
1982
1992
2016
2055
2099
2128
2127
2093
2042
1994
1966
1959
1964
1970
1973
1973
1975
1979
1982
1982
1981
1979
1976
1974
1972
1972
1973
1974
1975
1976
1977
1978
1979
1977
1975
1974
1975
1979
1983
1984
1981
1977
1974
1974
1977
1982
1985
1986
1987
1988
1988
1988
1987
1984
1982
1982
1985
1990
1994
1996
1995
1993
1992
1993
1995
1997
1998
1999
2000
2000
1998
1994
1989
1985
1982
1980
1978
1974
1970
1966
1966
1967
1967
1967
1965
1962
1959
1957
1956
1957
1960
1963
1965
1965
1964
1963
1961
1960
1960
1962
1964
1966
1967
1966
1964
1963
1963
1963
1963
1963
1961
1958
1955
1953
1953
1955
1956
1958
1959
1960
1960
1960
1958
1957
1956
1957
1959
1961
1960
1958
1955
1953
1951
1951
1952
1954
1956
1957
1958
1957
1956
1956
1958
1960
1961
1962
1961
1960
1959
1958
1957
1957
1957
1958
1959
1960
1961
1962
1964
1965
1966
1964
1961
1959
1958
1958
1960
1961
1960
1958
1956
1954
1953
1953
1955
1957
1960
1961
1960
1957
1954
1955
1969
1998
2041
2080
2100
2087
2046
1991
1946
1925
1928
1944
1959
1966
1966
1963
1960
1957
1956
1956
1955
1955
1957
1959
1961
1963
1963
1962
1961
1960
1961
1962
1964
1965
1966
1966
1966
1966
1966
1967
1968
1970
1971
1973
1975
1975
1975
1975
1975
1977
1979
1983
1986
1988
1989
1990
1990
1990
1992
1994
1996
2000
2003
2005
2006
2005
2003
2002
2002
2002
2000
1997
1992
1986
1980
1976
1974
1973
1974
1974
1973
1972
1972
1972
1973
1974
1974
1972
1971
1969
1969
1970
1972
1974
1976
1976
1974
1973
1974
1975
1977
1978
1978
1976
1975
1976
1977
1979
1980
1980
1979
1978
1979
1981
1982
1983
1983
1982
1981
1980
1981
1981
1981
1980
1979
1979
1979
1981
1983
1984
1985
1983
1981
1979
1979
1979
1981
1983
1984
1985
1984
1983
1982
1982
1982
1983
1984
1985
1984
1984
1984
1984
1985
1985
1985
1984
1983
1983
1985
1988
1991
1991
1991
1989
1989
1990
1992
1993
1993
1992
1992
1991
1990
1989
1988
1986
1986
1987
1989
1990
1990
1989
1987
1984
1981
1980
1985
2003
2039
2086
2130
2148
2129
2080
2024
1983
1967
1974
1987
1995
1993
1988
1984
1984
1985
1986
1985
1984
1983
1984
1985
1987
1988
1989
1989
1989
1989
1988
1987
1987
1987
1988
1989
1991
1992
1992
1991
1991
1991
1992
1992
1993
1993
1994
1995
1994
1995
1996
1998
2000
2002
2002
2001
2001
2002
2003
2004
2005
2006
2007
2008
2009
2010
2010
2009
2010
2010
2010
2009
2004
1999
1994
1990
1989
1989
1989
1989
1988
1988
1987
1986
1984
1982
1983
1984
1987
1989
1989
1988
1987
1986
1985
1985
1986
1986
1987
1988
1988
1988
1988
1988
1987
1987
1987
1986
1985
1985
1987
1989
1991
1991
1989
1987
1986
1986
1988
1990
1991
1990
1988
1987
1987
1988
1988
1988
1988
1988
1989
1990
1990
1991
1991
1991
1990
1989
1988
1987
1986
1985
1985
1985
1986
1987
1989
1991
1992
1991
1989
1988
1987
1987
1988
1987
1985
1984
1983
1984
1986
1987
1988
1988
1988
1989
1991
1993
1995
1996
1995
1994
1993
1991
1990
1989
1988
1987
1987
1987
1987
1986
1985
1985
1986
1987
1988
1986
1984
1981
1980
1979
1984
2001
2035
2080
2122
2139
2121
2073
2018
1975
1958
1962
1975
1985
1988
1987
1986
1985
1984
1982
1982
1982
1983
1983
1983
1984
1984
1986
1987
1987
1986
1985
1984
1985
1987
1989
1990
1990
1989
1987
1986
1986
1986
1988
1990
1992
1994
1995
1995
1994
1993
1993
1995
1997
1999
1999
1998
1998
1999
2001
2003
2006
2007
2007
2007
2007
2007
2007
2007
2008
2008
2006
2003
1999
1996
1994
1992
1991
1989
1987
1984
1983
1982
1982
1982
1982
1982
1982
1983
1984
1984
1984
1984
1982
1981
1981
1983
1985
1988
1988
1988
1986
1984
1983
1983
1984
1984
1985
1986
1986
1986
1985
1984
1983
1983
1984
1985
1986
1986
1986
1985
1984
1984
1985
1986
1986
1986
1986
1985
1985
1985
1984
1984
1984
1984
1984
1984
1984
1984
1985
1986
1987
1987
1987
1987
1987
1988
1988
1988
1987
1985
1984
1984
1984
1984
1984
1985
1986
1986
1987
1987
1986
1986
1986
1986
1985
1984
1984
1986
1990
1993
1995
1995
1993
1992
1992
1993
1994
1994
1992
1989
1986
1984
1984
1985
1986
1987
1988
1987
1986
1985
1984
1982
1981
1979
1980
1991
2019
2061
2106
2132
2124
2084
2030
1983
1959
1959
1971
1983
1987
1986
1982
1980
1979
1979
1980
1981
1981
1981
1981
1981
1981
1981
1981
1980
1980
1980
1981
1982
1983
1983
1983
1983
1984
1984
1983
1983
1982
1984
1986
1989
1991
1990
1987
1985
1984
1986
1989
1992
1994
1994
1995
1995
1995
1996
1998
2000
2002
2004
2004
2004
2003
2003
2004
2005
2005
2003
1999
1994
1989
1985
1982
1980
1980
1980
1980
1978
1975
1973
1971
1971
1971
1971
1969
1968
1968
1968
1969
1970
1969
1969
1969
1969
1969
1970
1971
1971
1972
1972
1973
1973
1973
1972
1970
1969
1968
1968
1969
1971
1973
1974
1973
1971
1970
1970
1971
1973
1975
1976
1975
1973
1971
1970
1970
1970
1971
1972
1974
1974
1974
1974
1972
1972
1971
1971
1971
1972
1972
1971
1970
1970
1969
1969
1970
1971
1971
1972
1972
1972
1973
1975
1977
1980
1982
1983
1983
1981
1979
1976
1975
1976
1977
1978
1977
1973
1971
1970
1971
1974
1977
1978
1976
1974
1971
1970
1974
1990
2020
2060
2097
2112
2097
2054
2002
1962
1945
1950
1965
1978
1984
1984
1982
1980
1979
1977
1976
1977
1978
1980
1981
1981
1981
1981
1980
1980
1980
1980
1981
1982
1984
1986
1987
1986
1985
1984
1984
1985
1988
1991
1993
1993
1991
1989
1989
1991
1994
1997
2000
2001
2002
2002
2002
2003
2003
2005
2007
2010
2012
2014
2015
2015
2015
2015
2016
2015
2013
2009
2005
2001
1998
1993
1989
1984
1982
1981
1981
1983
1983
1983
1982
1980
1978
1977
1977
1978
1979
1980
1981
1980
1980
1980
1980
1981
1982
1983
1984
1984
1984
1984
1984
1985
1986
1985
1985
1985
1985
1985
1986
1987
1988
1989
1990
1989
1987
1986
1986
1987
1989
1991
1992
1990
1988
1986
1986
1988
1990
1991
1991
1990
1990
1989
1989
1988
1987
1988
1989
1990
1991
1992
1992
1991
1991
1990
1989
1989
1989
1990
1991
1991
1991
1991
1990
1990
1991
1991
1992
1994
1995
1996
1996
1996
1995
1995
1996
1999
2002
2004
2004
2002
1999
1996
1994
1993
1993
1993
1994
1995
1995
1996
1997
1997
1997
1995
1992
1989
1989
1999
2023
2063
2107
2137
2137
2104
2052
2003
1973
1969
1980
1994
2002
2003
2000
1997
1995
1993
1992
1993
1994
1996
1997
1997
1996
1994
1993
1994
1996
1999
2000
2001
2000
1999
1997
1997
1998
2000
2002
2003
2003
2003
2003
2003
2003
2004
2005
2005
2006
2007
2008
2009
2011
2011
2012
2012
2012
2014
2016
2019
2021
2022
2022
2021
2021
2020
2021
2021
2021
2020
2019
2017
2014
2010
2006
2003
2000
1998
1997
1996
1995
1995
1994
1995
1995
1995
1994
1993
1993
1993
1994
1995
1995
1995
1995
1995
1996
1996
1996
1995
1994
1994
1994
1996
1997
1998
1998
1998
1999
2000
2001
2001
2000
1998
1997
1996
1996
1997
1998
1999
2000
2000
1999
1999
1998
1997
1997
1997
1997
1998
2000
2000
2000
2000
1998
1997
1996
1997
2000
2004
2006
2005
2001
1996
1993
1993
1994
1996
1996
1996
1996
1997
1998
1998
1997
1996
1996
1997
1999
2000
1999
1998
1996
1995
1996
1998
1999
1998
1996
1993
1992
1993
1995
1997
1999
1999
2000
2001
2003
2004
2003
2002
2001
1999
1997
1995
1993
1992
1991
1991
1993
1995
1998
2000
2000
1999
1997
1994
1991
1990
1991
1995
2009
2038
2081
2125
2152
2146
2107
2052
2003
1976
1973
1985
1997
2001
1999
1994
1991
1990
1991
1992
1994
1994
1994
1994
1994
1994
1994
1995
1996
1997
1998
1999
1998
1996
1995
1996
1997
1999
2001
2001
2000
2000
2000
2001
2002
2003
2005
2006
2007
2007
2008
2009
2009
2009
2009
2008
2009
2010
2012
2014
2015
2016
2015
2015
2015
2015
2016
2017
2017
2017
2017
2015
2013
2009
2006
2003
2001
2000
1999
1998
1997
1994
1992
1990
1990
1991
1992
1993
1994
1995
1996
1997
1998
1997
1996
1995
1994
1994
1996
1998
1999
2000
1998
1996
1993
1992
1992
1993
1995
1997
1997
1997
1997
1996
1996
1996
1997
1997
1998
1998
1998
1999
1999
1999
1998
1997
1995
1994
1994
1995
1997
1997
1997
1995
1994
1993
1993
1994
1996
1997
1998
1998
1998
1997
1997
1997
1997
1996
1996
1995
1995
1994
1994
1994
1994
1994
1993
1993
1994
1995
1996
1997
1997
1996
1994
1992
1992
1992
1995
1998
2001
2001
2001
1999
1997
1997
1998
1998
1997
1996
1995
1995
1995
1994
1992
1990
1989
1990
1991
1992
1991
1989
1986
1983
1982
1985
2001
2033
2077
2119
2137
2120
2075
2020
1977
1959
1962
1975
1985
1987
1985
1982
1980
1979
1978
1979
1979
1980
1981
1981
1981
1981
1982
1981
1981
1981
1981
1981
1982
1981
1981
1980
1980
1980
1981
1983
1984
1984
1983
1983
1984
1985
1986
1986
1986
1986
1986
1987
1989
1992
1994
1996
1997
1997
1996
1996
1996
1998
2000
2004
2007
2008
2007
2006
2004
2003
2001
1998
1994
1989
1985
1982
1980
1977
1976
1974
1972
1972
1972
1973
1973
1972
1970
1969
1969
1970
1971
1972
1971
1969
1969
1969
1971
1972
1973
1973
1972
1972
1974
1975
1977
1977
1976
1974
1974
1974
1975
1976
1978
1979
1980
1979
1978
1976
1975
1976
1978
1981
1982
1983
1982
1981
1979
1978
1977
1977
1978
1979
1981
1982
1982
1983
1984
1984
1985
1984
1983
1982
1982
1982
1982
1983
1983
1983
1984
1986
1988
1990
1992
1993
1993
1992
1991
1989
1988
1987
1987
1987
1987
1988
1989
1990
1991
1991
1991
1991
1990
1989
1988
1988
1995
2014
2048
2092
2128
2137
2113
2064
2013
1977
1966
1974
1988
1997
2000
1999
1997
1997
1996
1996
1996
1997
1998
2000
2000
2000
1999
1998
1999
2001
2003
2005
2005
2003
2001
2000
2001
2003
2006
2008
2008
2008
2007
2007
2007
2008
2010
2011
2011
2011
2013
2016
2019
2022
2022
2020
2019
2019
2021
2024
2028
2030
2031
2032
2032
2032
2032
2033
2034
2034
2032
2028
2022
2014
2009
2006
2005
2005
2005
2002
1999
1997
1996
1996
1996
1996
1996
1995
1995
1996
1997
1998
1998
1997
1996
1996
1996
1998
1999
2000
1999
1998
1996
1995
1995
1995
1996
1996
1997
1998
1998
1998
1996
1995
1994
1994
1996
1998
1999
1998
1997
1995
1994
1994
1995
1996
1996
1996
1995
1993
1991
1990
1990
1991
1991
1992
1991
1990
1990
1990
1989
1989
1989
1989
1988
1988
1988
1988
1987
1987
1987
1987
1988
1987
1985
1983
1981
1981
1982
1984
1986
1986
1986
1986
1986
1988
1989
1989
1987
1986
1984
1983
1982
1981
1979
1978
1978
1978
1979
1979
1978
1976
1974
1973
1971
1972
1981
2006
2048
2096
2132
2134
2100
2045
1990
1957
1950
1960
1972
1977
1976
1973
1971
1970
1969
1968
1968
1968
1969
1969
1968
1967
1966
1967
1968
1970
1971
1972
1971
1970
1969
1968
1968
1968
1968
1969
1971
1972
1974
1974
1972
1971
1970
1969
1971
1972
1974
1975
1976
1977
1977
1978
1978
1979
1981
1983
1985
1987
1988
1988
1987
1986
1985
1984
1984
1984
1984
1983
1980
1977
1974
1970
1968
1966
1964
1964
1963
1963
1963
1963
1961
1960
1959
1958
1958
1959
1959
1959
1960
1960
1961
1962
1962
1962
1961
1960
1959
1959
1959
1959
1959
1960
1960
1959
1959
1959
1959
1960
1961
1962
1962
1962
1961
1960
1959
1959
1959
1959
1959
1959
1959
1960
1960
1960
1960
1960
1960
1960
1961
1962
1962
1962
1961
1961
1961
1961
1962
1963
1963
1963
1962
1961
1960
1960
1959
1960
1960
1961
1962
1963
1964
1964
1962
1960
1959
1959
1959
1960
1961
1962
1963
1965
1965
1966
1966
1967
1968
1971
1973
1974
1972
1969
1965
1962
1959
1959
1960
1962
1963
1965
1966
1965
1964
1962
1960
1958
1957
1958
1968
1992
2032
2079
2116
2124
2095
2042
1987
1951
1941
1949
1961
1968
1968
1965
1964
1963
1962
1961
1960
1960
1961
1963
1963
1963
1962
1962
1962
1963
1965
1967
1968
1968
1967
1965
1965
1966
1968
1970
1971
1971
1969
1968
1968
1969
1970
1971
1972
1973
1974
1976
1976
1977
1977
1978
1979
1980
1982
1983
1985
1986
1987
1987
1987
1987
1987
1988
1989
1989
1990
1989
1987
1984
1979
1975
1972
1970
1969
1968
1968
1969
1969
1970
1970
1969
1967
1967
1967
1968
1969
1970
1969
1968
1967
1967
1968
1969
1971
1973
1973
1971
1970
1969
1969
1970
1971
1971
1972
1972
1973
1973
1973
1972
1971
1971
1972
1972
1972
1972
1972
1973
1974
1974
1974
1973
1971
1971
1971
1972
1972
1973
1973
1973
1974
1974
1974
1973
1973
1973
1974
1975
1975
1973
1972
1970
1969
1969
1971
1973
1974
1974
1974
1974
1974
1974
1974
1973
1970
1968
1967
1967
1969
1971
1973
1974
1974
1975
1976
1978
1979
1981
1981
1980
1977
1973
1969
1967
1966
1967
1969
1971
1972
1971
1971
1969
1968
1966
1965
1963
1963
1970
1989
2024
2067
2103
2114
2091
2043
1989
1951
1938
1946
1960
1969
1969
1966
1963
1963
1964
1965
1967
1968
1968
1967
1966
1965
1965
1964
1964
1964
1965
1965
1966
1967
1968
1968
1968
1968
1970
1971
1972
1972
1972
1972
1973
1974
1975
1975
1975
1975
1976
1976
1978
1980
1981
1983
1985
1986
1988
1990
1992
1994
1995
1995
1995
1994
1994
1995
1995
1995
1993
1991
1987
1983
1980
1976
1973
1969
1967
1967
1968
1969
1969
1969
1967
1964
1962
1959
1958
1959
1960
1963
1965
1965
1964
1962
1961
1962
1964
1966
1969
1969
1968
1966
1963
1961
1961
1963
1966
1969
1970
1969
1967
1967
1968
1971
1973
1973
1970
1968
1967
1968
1970
1971
1971
1969
1968
1968
1969
1970
1972
1975
1977
1977
1976
1972
1968
1967
1969
1973
1976
1977
1976
1973
1971
1971
1973
1975
1976
1977
1977
1976
1976
1975
1975
1975
1975
1976
1977
1978
1980
1981
1982
1982
1981
1981
1983
1985
1986
1987
1986
1985
1983
1981
1979
1978
1977
1976
1977
1978
1979
1980
1981
1980
1978
1975
1972
1972
1980
2002
2038
2080
2115
2124
2100
2052
2000
1964
1952
1960
1975
1985
1987
1985
1982
1980
1980
1980
1980
1980
1981
1982
1984
1984
1983
1982
1981
1982
1984
1985
1986
1987
1988
1988
1987
1986
1986
1988
1990
1992
1992
1992
1991
1990
1991
1991
1992
1993
1994
1997
1999
2001
2002
2001
2000
2001
2004
2007
2010
2011
2011
2011
2010
2011
2013
2014
2015
2015
2013
2010
2007
2003
1999
1995
1991
1987
1985
1983
1984
1985
1986
1987
1985
1982
1979
1978
1979
1982
1985
1986
1985
1984
1983
1982
1982
1982
1982
1983
1984
1986
1987
1988
1987
1986
1985
1984
1985
1986
1988
1989
1989
1988
1987
1987
1987
1987
1987
1987
1986
1987
1988
1989
1990
1990
1989
1988
1987
1986
1987
1988
1989
1990
1990
1990
1989
1988
1988
1988
1988
1990
1991
1991
1990
1988
1986
1986
1987
1989
1991
1991
1990
1989
1989
1989
1990
1990
1989
1989
1989
1991
1992
1992
1990
1989
1988
1987
1988
1989
1990
1991
1992
1994
1995
1995
1995
1994
1995
1996
1998
1999
2000
1998
1995
1991
1988
1987
1988
1990
1991
1991
1990
1990
1991
1991
1991
1989
1986
1983
1984
1994
2020
2060
2107
2138
2139
2106
2052
2002
1971
1965
1975
1988
1993
1992
1988
1985
1984
1984
1985
1987
1988
1989
1988
1987
1986
1987
1987
1989
1990
1991
1991
1991
1991
1991
1989
1988
1987
1988
1991
1993
1996
1996
1995
1994
1993
1993
1994
1996
1998
2000
2002
2003
2004
2003
2003
2003
2004
2006
2008
2011
2012
2012
2012
2012
2012
2012
2013
2013
2013
2012
2010
2008
2006
2003
2000
1998
1995
1993
1992
1992
1992
1991
1989
1986
1982
1981
1982
1984
1987
1990
1990
1990
1988
1987
1987
1987
1989
1990
1990
1989
1986
1985
1984
1985
1987
1988
1988
1989
1989
1990
1990
1989
1988
1987
1987
1988
1989
1990
1991
1991
1991
1990
1989
1988
1987
1987
1988
1989
1990
1990
1989
1988
1987
1988
1990
1991
1991
1990
1989
1989
1989
1990
1989
1988
1987
1986
1987
1989
1992
1993
1993
1992
1992
1991
1991
1990
1990
1990
1990
1990
1989
1988
1987
1987
1987
1988
1990
1990
1991
1992
1992
1992
1991
1989
1987
1987
1989
1993
1996
1998
1999
1997
1996
1994
1994
1995
1996
1996
1995
1993
1990
1988
1987
1987
1987
1988
1988
1989
1989
1989
1987
1984
1982
1983
1994
2021
2062
2108
2139
2139
2106
2053
2003
1972
1966
1974
1984
1988
1988
1987
1987
1988
1987
1986
1984
1984
1984
1984
1986
1986
1987
1987
1987
1987
1987
1987
1988
1988
1987
1987
1988
1989
1990
1991
1991
1991
1990
1990
1991
1993
1995
1997
1996
1995
1994
1994
1995
1996
1997
1999
2001
2003
2005
2006
2007
2008
2011
2013
2013
2012
2010
2009
2009
2010
2010
2009
2006
2002
1999
1996
1994
1992
1990
1988
1987
1986
1987
1987
1987
1985
1984
1984
1985
1987
1988
1988
1987
1986
1985
1985
1984
1983
1983
1984
1984
1985
1986
1986
1988
1989
1991
1991
1990
1988
1985
1984
1985
1986
1988
1990
1990
1989
1988
1988
1988
1988
1989
1989
1989
1989
1989
1989
1989
1989
1990
1991
1991
1992
1992
1993
1993
1994
1993
1992
1989
1988
1988
1990
1992
1994
1994
1993
1992
1992
1992
1993
1993
1993
1993
1994
1995
1996
1995
1994
1992
1992
1993
1996
1998
1998
1997
1995
1994
1994
1994
1994
1995
1995
1996
1997
1998
1999
1999
2000
2001
2002
2002
2002
2003
2004
2006
2007
2007
2005
2003
2000
1999
2000
2001
2003
2002
2001
2000
1999
2000
2000
1999
1996
1992
1990
1989
1997
2020
2059
2107
2144
2152
2125
2073
2020
1984
1972
1978
1990
1998
2001
2000
1999
1997
1997
1996
1997
1998
1999
1999
1998
1998
1998
2000
2002
2003
2003
2002
2001
2001
2002
2003
2004
2004
2003
2003
2004
2006
2007
2008
2009
2010
2010
2011
2011
2011
2011
2011
2011
2013
2014
2016
2017
2018
2019
2020
2021
2023
2025
2026
2028
2028
2028
2027
2027
2027
2027
2026
2025
2023
2020
2016
2013
2010
2009
2009
2010
2010
2010
2009
2007
2006
2005
2004
2004
2005
2006
2007
2008
2007
2007
2006
2007
2008
2010
2010
2009
2008
2007
2007
2007
2008
2008
2007
2008
2008
2010
2010
2010
2008
2006
2004
2005
2007
2010
2011
2010
2008
2005
2003
2004
2006
2008
2009
2008
2007
2005
2004
2004
2004
2005
2007
2008
2009
2009
2006
2003
2001
2001
2003
2004
2004
2003
2002
2001
2002
2003
2004
2004
2003
2002
2001
2001
2002
2001
2000
1999
1997
1996
1996
1997
1997
1998
1997
1997
1998
1998
1999
2000
2000
1999
1997
1994
1992
1990
1990
1991
1993
1997
1999
2001
2001
1999
1999
1999
2000
2001
2000
1998
1994
1990
1988
1988
1989
1990
1990
1991
1990
1990
1990
1989
1988
1987
1985
1983
1981
1985
2001
2035
2080
2122
2141
2125
2080
2026
1983
1963
1964
1972
1980
1981
1980
1979
1979
1978
1977
1977
1977
1976
1975
1974
1974
1974
1975
1976
1977
1977
1976
1976
1975
1975
1974
1974
1975
1977
1979
1980
1979
1977
1975
1974
1973
1973
1974
1974
1974
1975
1975
1974
1973
1972
1973
1974
1976
1977
1978
1979
1980
1982
1984
1985
1984
1983
1983
1983
1983
1983
1981
1977
1972
1967
1963
1961
1959
1958
1957
1955
1954
1953
1952
1952
1952
1951
1951
1949
1948
1946
1945
1945
1945
1945
1946
1946
1946
1946
1946
1946
1947
1946
1945
1944
1944
1944
1944
1944
1944
1943
1942
1941
1941
1940
1939
1939
1939
1941
1943
1946
1947
1947
1945
1942
1940
1938
1938
1938
1938
1939
1939
1940
1941
1940
1939
1938
1938
1939
1941
1942
1941
1939
1937
1936
1937
1938
1940
1940
1939
1938
1938
1939
1940
1942
1942
1940
1938
1936
1935
1935
1936
1938
1939
1940
1940
1939
1938
1936
1936
1938
1940
1942
1944
1945
1945
1944
1944
1942
1940
1939
1938
1937
1937
1937
1937
1938
1938
1938
1937
1936
1935
1934
1933
1932
1931
1932
1941
1963
1999
2041
2070
2073
2045
1994
1943
1911
1904
1916
1932
1941
1941
1937
1933
1931
1931
1933
1935
1936
1936
1936
1936
1935
1935
1935
1935
1935
1935
1936
1938
1940
1941
1940
1938
1936
1935
1936
1939
1943
1945
1946
1945
1944
1943
1942
1943
1944
1946
1949
1951
1953
1955
1955
1954
1954
1955
1958
1962
1964
1965
1965
1964
1965
1966
1968
1969
1969
1967
1964
1959
1953
1949
1944
1941
1938
1936
1934
1933
1933
1932
1931
1930
1930
1930
1930
1931
1930
1930
1930
1930
1931
1931
1931
1932
1932
1932
1932
1932
1932
1932
1932
1933
1934
1935
1935
1935
1935
1935
1935
1936
1936
1937
1938
1937
1937
1937
1937
1938
1940
1940
1940
1939
1937
1936
1936
1938
1940
1943
1944
1943
1941
1938
1936
1935
1935
1937
1939
1940
1941
1941
1940
1940
1940
1940
1941
1941
1941
1941
1942
1943
1943
1943
1943
1943
1944
1944
1943
1942
1940
1940
1941
1942
1944
1946
1946
1946
1947
1948
1950
1951
1952
1953
1952
1950
1948
1948
1948
1949
1949
1949
1948
1947
1946
1947
1948
1949
1948
1946
1944
1943
1944
1953
1976
2015
2059
2092
2098
2069
2019
1967
1933
1925
1934
1947
1954
1954
1951
1949
1949
1950
1951
1952
1952
1953
1953
1954
1954
1955
1956
1956
1955
1955
1955
1957
1958
1959
1959
1958
1957
1958
1960
1962
1964
1964
1963
1962
1962
1965
1968
1971
1973
1972
1970
1969
1968
1970
1973
1976
1978
1979
1981
1984
1986
1987
1988
1988
1989
1991
1992
1992
1991
1988
1985
1982
1980
1979
1978
1977
1975
1972
1970
1968
1967
1967
1968
1968
1968
1968
1968
1969
1970
1970
1970
1969
1970
1971
1973
1974
1974
1971
1969
1968
1969
1972
1975
1977
1977
1976
1976
1976
1977
1977
1977
1978
1979
1981
1981
1979
1978
1977
1978
1980
1982
1982
1981
1981
1981
1982
1983
1984
1985
1985
1984
1984
1984
1984
1985
1986
1987
1986
1983
1981
1981
1981
1983
1985
1986
1987
1988
1989
1990
1989
1988
1987
1987
1988
1989
1989
1989
1989
1988
1988
1989
1990
1990
1989
1988
1987
1986
1987
1989
1991
1992
1992
1990
1987
1985
1983
1984
1987
1989
1991
1991
1990
1990
1992
1996
1999
2000
1999
1997
1995
1993
1991
1990
1989
1989
1989
1989
1989
1989
1989
1989
1991
1991
1989
1986
1983
1982
1983
1992
2014
2050
2097
2137
2149
2126
2076
2021
1980
1964
1970
1982
1990
1991
1988
1985
1985
1984
1984
1984
1984
1983
1983
1983
1984
1986
1987
1987
1986
1985
1984
1984
1984
1985
1986
1985
1986
1986
1988
1990
1991
1991
1991
1990
1989
1988
1987
1987
1988
1990
1994
1997
1999
1999
1997
1994
1993
1995
1998
2001
2003
2001
1999
1999
2000
2004
2008
2010
2010
2008
2005
2002
1999
1997
1995
1993
1991
1988
1986
1983
1982
1982
1984
1986
1987
1987
1985
1982
1981
1981
1982
1984
1984
1984
1984
1986
1987
1989
1988
1985
1983
1982
1982
1983
1984
1985
1987
1989
1991
1990
1988
1984
1980
1978
1979
1981
1984
1986
1987
1988
1988
1987
1986
1984
1983
1981
1981
1981
1981
1982
1983
1983
1982
1981
1979
1979
1980
1982
1985
1986
1986
1986
1984
1983
1981
1980
1979
1979
1979
1980
1981
1981
1980
1979
1978
1978
1980
1982
1983
1984
1983
1981
1979
1978
1978
1978
1979
1980
1980
1981
1981
1979
1977
1976
1976
1977
1979
1979
1979
1980
1981
1984
1985
1986
1985
1984
1983
1982
1982
1981
1981
1980
1978
1976
1973
1971
1972
1973
1975
1976
1975
1974
1973
1973
1973
1973
1978
1992
2023
2065
2104
2121
2105
2061
2007
1963
1943
1945
1957
1970
1976
1976
1974
1972
1970
1969
1970
1973
1977
1981
1982
1981
1978
1973
1970
1970
1973
1976
1978
1978
1978
1977
1976
1977
1978
1980
1982
1984
1986
1988
1989
1988
1985
1982
1980
1981
1983
1986
1987
1987
1987
1987
1988
1990
1993
1995
1997
1999
2001
2004
2006
2008
2009
2008
2006
2004
2002
2000
1998
1995
1991
1987
1984
1981
1978
1975
1971
1969
1968
1969
1971
1973
1972
1968
1965
1963
1963
1965
1967
1968
1968
1968
1967
1967
1967
1967
1966
1965
1965
1966
1966
1968
1969
1970
1968
1966
1964
1964
1966
1969
1970
1969
1966
1963
1963
1965
1968
1970
1969
1968
1966
1965
1964
1963
1961
1960
1961
1963
1966
1968
1968
1966
1964
1963
1965
1967
1970
1970
1969
1967
1965
1964
1965
1965
1966
1967
1968
1969
1970
1969
1969
1969
1969
1971
1973
1974
1975
1976
1977
1979
1979
1977
1973
1969
1966
1966
1967
1969
1970
1970
1969
1968
1967
1967
1967
1967
1966
1965
1965
1974
1996
2033
2074
2104
2106
2076
2028
1978
1947
1939
1948
1962
1970
1973
1972
1970
1968
1966
1966
1966
1967
1970
1971
1970
1967
1963
1960
1959
1962
1967
1971
1972
1972
1970
1968
1967
1968
1968
1967
1967
1968
1968
1969
1968
1967
1967
1967
1969
1970
1971
1970
1969
1970
1972
1975
1978
1980
1980
1980
1981
1981
1982
1983
1983
1984
1985
1986
1988
1987
1985
1981
1976
1972
1969
1967
1965
1964
1962
1963
1965
1966
1966
1964
1961
1958
1956
1956
1957
1959
1960
1961
1963
1964
1965
1963
1960
1958
1957
1960
1964
1967
1969
1968
1967
1966
1966
1967
1967
1968
1968
1968
1968
1966
1965
1964
1966
1969
1974
1978
1980
1980
1979
1977
1976
1976
1976
1977
1977
1977
1977
1976
1976
1974
1973
1973
1974
1975
1977
1979
1980
1980
1979
1976
1974
1974
1976
1979
1980
1980
1978
1975
1974
1973
1974
1974
1974
1975
1975
1975
1976
1977
1977
1978
1978
1978
1979
1982
1984
1985
1984
1981
1978
1976
1976
1977
1977
1978
1979
1978
1978
1978
1977
1975
1974
1974
1972
1970
1968
1975
1999
2042
2093
2132
2141
2112
2058
2003
1967
1956
1963
1973
1978
1976
1973
1971
1971
1971
1972
1973
1975
1976
1975
1974
1972
1971
1971
1972
1975
1978
1979
1978
1976
1974
1973
1974
1975
1977
1978
1978
1978
1978
1978
1978
1979
1980
1980
1980
1979
1979
1980
1982
1985
1986
1986
1986
1986
1987
1989
1991
1994
1995
1995
1994
1994
1993
1994
1996
1996
1996
1993
1990
1987
1984
1983
1982
1981
1980
1980
1980
1979
1978
1977
1975
1974
1974
1975
1976
1977
1977
1975
1973
1972
1973
1975
1978
1980
1981
1981
1981
1980
1979
1978
1977
1977
1977
1978
1979
1980
1980
1981
1980
1979
1978
1977
1978
1980
1981
1982
1981
1980
1978
1977
1977
1979
1983
1986
1986
1984
1980
1977
1976
1977
1978
1979
1980
1982
1984
1986
1987
1986
1983
1980
1978
1977
1977
1978
1977
1978
1980
1983
1984
1984
1982
1979
1978
1980
1983
1985
1987
1987
1987
1988
1989
1990
1990
1990
1989
1987
1984
1981
1979
1982
1987
1993
1996
1995
1991
1987
1986
1986
1987
1994
2015
2052
2099
2134
2140
2110
2058
2007
1976
1970
1979
1991
1996
1994
1991
1988
1985
1982
1981
1981
1984
1988
1992
1993
1992
1990
1988
1985
1984
1984
1986
1990
1995
1998
1996
1991
1985
1981
1979
1980
1982
1986
1989
1991
1992
1991
1989
1985
1982
1982
1984
1988
1992
1994
1995
1995
1993
1992
1991
1993
1995
1996
1995
1995
1996
1998
2001
2002
1999
1992
1985
1979
1975
1974
1973
1972
1971
1969
1967
1964
1960
1957
1956
1957
1958
1959
1960
1959
1958
1958
1959
1959
1959
1959
1957
1955
1953
1951
1950
1951
1953
1956
1957
1957
1955
1953
1953
1954
1957
1959
1958
1956
1953
1953
1954
1957
1960
1960
1959
1956
1953
1952
1952
1953
1953
1955
1955
1955
1955
1956
1958
1959
1958
1955
1951
1947
1945
1946
1950
1955
1957
1956
1953
1951
1953
1957
1963
1969
1969
1965
1959
1952
1948
1949
1954
1959
1962
1962
1960
1957
1955
1954
1955
1955
1955
1956
1955
1955
1955
1961
1977
2007
2047
2081
2095
2078
2036
1984
1943
1925
1928
1942
1954
1959
1959
1958
1959
1962
1965
1965
1962
1958
1954
1954
1955
1957
1958
1958
1957
1957
1960
1964
1966
1967
1966
1966
1967
1967
1967
1965
1965
1965
1966
1968
1969
1969
1970
1971
1974
1974
1972
1971
1972
1976
1981
1985
1987
1987
1988
1989
1991
1990
1989
1987
1987
1990
1993
1996
1997
1995
1992
1987
1981
1976
1971
1968
1967
1968
1969
1969
1968
1967
1965
1963
1964
1964
1963
1961
1959
1959
1962
1966
1971
1973
1971
1966
1961
1960
1963
1966
1968
1966
1962
1960
1963
1968
1974
1975
1973
1968
1965
1965
1966
1967
1968
1969
1970
1971
1972
1973
1973
1972
1972
1972
1971
1971
1971
1971
1970
1968
1965
1963
1964
1969
1975
1980
1982
1980
1976
1973
1970
1969
1969
1969
1970
1970
1969
1970
1972
1976
1982
1986
1987
1985
1982
1979
1977
1975
1973
1972
1971
1972
1975
1978
1981
1982
1981
1979
1977
1974
1973
1972
1976
1990
2020
2062
2104
2125
2113
2072
2023
1983
1966
1967
1976
1982
1982
1980
1979
1979
1978
1977
1977
1978
1981
1983
1984
1984
1984
1985
1986
1987
1987
1987
1987
1987
1988
1988
1989
1990
1991
1991
1989
1988
1987
1988
1989
1991
1993
1995
1996
1997
1999
1998
1997
1996
1995
1995
1996
1996
1997
1998
2001
2004
2007
2009
2010
2010
2009
2008
2007
2006
2006
2005
2004
2002
2000
1998
1997
1995
1994
1993
1993
1992
1992
1991
1991
1991
1990
1989
1989
1989
1988
1988
1989
1991
1994
1997
1999
1999
1998
1996
1994
1993
1993
1995
1997
1998
1997
1995
1993
1992
1993
1997
2000
2003
2003
2002
2001
2000
2000
2001
2003
2004
2006
2007
2007
2008
2010
2012
2013
2013
2011
2008
2005
2004
2005
2008
2012
2014
2014
2012
2010
2010
2011
2013
2015
2016
2016
2015
2015
2014
2012
2010
2007
2006
2006
2007
2009
2009
2009
2006
2003
1999
1995
1992
1990
1988
1987
1985
1987
1999
2028
2071
2116
2141
2131
2087
2029
1979
1955
1956
1969
1982
1986
1983
1979
1975
1973
1971
1970
1969
1969
1970
1971
1973
1974
1974
1972
1970
1969
1969
1969
1970
1971
1970
1970
1970
1970
1970
1969
1969
1968
1969
1970
1972
1973
1973
1973
1972
1972
1972
1972
1973
1974
1974
1974
1972
1970
1968
1967
1967
1968
1970
1971
1972
1972
1973
1973
1972
1970
1968
1965
1961
1958
1955
1952
1950
1949
1948
1947
1946
1946
1945
1945
1946
1947
1947
1948
1948
1948
1948
1948
1949
1951
1953
1955
1957
1958
1959
1960
1961
1962
1963
1965
1967
1968
1968
1968
1968
1968
1968
1968
1968
1969
1969
1969
1970
1970
1969
1969
1969
1969
1970
1972
1973
1974
1974
1975
1975
1975
1975
1976
1977
1978
1980
1981
1982
1983
1983
1984
1985
1986
1986
1987
1988
1988
1988
1988
1988
1988
1988
1987
1986
1985
1986
1986
1987
1988
1989
1989
1989
1988
1986
1985
1983
1982
1981
1980
1979
1978
1977
1976
1977
1978
1979
1980
1979
1977
1975
1975
1977
1989
2012
2048
2082
2101
2092
2056
2009
1967
1947
1948
1961
1974
1980
1979
1976
1973
1972
1971
1972
1972
1973
1973
1974
1974
1975
1974
1974
1974
1974
1974
1974
1974
1974
1975
1975
1975
1975
1975
1974
1975
1976
1977
1978
1979
1979
1979
1979
1979
1980
1982
1984
1986
1989
1990
1991
1991
1991
1991
1992
1993
1995
1997
1998
2000
2000
2001
2000
1999
1998
1996
1993
1990
1987
1984
1981
1978
1975
1973
1971
1970
1969
1969
1969
1970
1970
1970
1970
1970
1969
1968
1968
1969
1970
1971
1971
1971
1971
1970
1970
1971
1973
1975
1975
1975
1974
1973
1973
1973
1973
1973
1972
1972
1973
1973
1974
1974
1973
1972
1971
1971
1973
1974
1975
1975
1973
1972
1971
1972
1974
1977
1980
1982
1982
1980
1978
1975
1974
1972
1972
1972
1972
1972
1973
1973
1973
1972
1972
1971
1971
1970
1969
1968
1968
1970
1981
2004
2039
2073
2094
2088
2055
2009
1967
1944
1943
1955
1968
1974
1975
1974
1973
1973
1973
1972
1971
1971
1971
1971
1972
1972
1973
1974
1973
1972
1971
1971
1972
1973
1973
1973
1974
1976
1979
1981
1982
1980
1978
1977
1977
1979
1982
1984
1986
1986
1986
1985
1985
1985
1987
1990
1993
1996
1997
1997
1998
1999
2000
2001
2000
1999
1999
2001
2001
2000
1995
1989
1982
1979
1977
1976
1975
1974
1971
1968
1967
1967
1966
1966
1965
1964
1964
1965
1965
1965
1965
1966
1966
1966
1965
1963
1962
1963
1966
1970
1973
1974
1972
1970
1968
1967
1969
1972
1976
1978
1977
1974
1972
1972
1974
1976
1977
1976
1975
1976
1977
1979
1979
1977
1975
1974
1974
1976
1977
1979
1980
1981
1979
1978
1977
1978
1979
1980
1981
1981
1982
1983
1985
1986
1987
1987
1988
1988
1989
1990
1990
1988
1986
1983
1981
1981
1984
1987
1989
1989
1988
1986
1983
1983
1983
1984
1985
1989
2002
2026
2061
2097
2116
2108
2075
2032
1994
1974
1972
1979
1986
1990
1991
1989
1988
1985
1983
1983
1985
1989
1992
1993
1991
1988
1987
1988
1992
1997
1999
1997
1993
1989
1987
1988
1991
1995
1998
1999
1998
1998
1998
1999
2001
2000
2000
1999
2000
2002
2005
2009
2010
2010
2007
2004
2003
2004
2008
2012
2014
2014
2013
2013
2013
2014
2014
2014
2012
2008
2005
2002
2001
2001
2001
2002
2001
1998
1995
1992
1991
1992
1994
1996
1996
1994
1993
1992
1992
1994
1995
1996
1997
1997
1996
1995
1995
1995
1996
1997
1998
1998
1997
1996
1996
1996
1997
1998
1999
1999
1999
1999
1999
1999
1999
1998
1998
1998
1998
1998
1998
1997
1997
1998
1998
1999
1999
1998
1997
1996
1996
1996
1997
1998
1999
2000
2001
2001
2002
2003
2004
2005
2004
2003
2000
1998
1997
1997
1998
1999
1999
2000
2000
2000
1999
1999
1998
1996
1995
1993
1994
2004
2027
2065
2106
2135
2136
2107
2061
2017
1990
1983
1990
2000
2004
2004
2001
1999
1998
1998
1999
1999
1999
1998
1999
1999
2000
2000
2000
2000
2000
2000
1999
1999
1999
1998
1998
1997
1997
1998
1999
2000
2000
2000
2000
2000
2000
2001
2003
2003
2004
2004
2004
2004
2004
2005
2006
2008
2010
2011
2012
2012
2012
2012
2012
2012
2011
2011
2010
2010
2008
2007
2005
2003
2001
1999
1998
1997
1996
1995
1995
1995
1994
1994
1993
1992
1992
1992
1992
1993
1993
1993
1994
1994
1994
1994
1994
1994
1993
1994
1994
1996
1997
1998
1998
1997
1996
1995
1995
1996
1997
1998
1999
1998
1997
1997
1996
1996
1997
1997
1998
1999
2000
1999
1998
1997
1997
1997
1998
1999
2000
2000
2000
2000
2000
1999
1999
1999
1999
2000
2001
2002
2002
2003
2004
2005
2006
2007
2007
2006
2005
2004
2002
2001
2000
2000
1999
1999
1999
1999
2000
2000
2001
2000
1999
1996
1994
1995
2004
2026
2063
2106
2137
2141
2114
2066
2019
1988
1980
1988
2000
2008
2009
2006
2003
2001
2000
2000
2002
2004
2005
2006
2005
2004
2004
2005
2006
2007
2008
2007
2007
2006
2006
2007
2007
2006
2006
2007
2007
2009
2010
2010
2011
2010
2010
2010
2010
2011
2012
2013
2014
2015
2015
2016
2015
2015
2016
2017
2018
2019
2020
2020
2021
2021
2021
2020
2019
2017
2016
2014
2012
2010
2007
2005
2002
2000
1999
1999
1999
1999
2000
2001
2001
2001
2000
1998
1997
1996
1997
1998
1999
1999
1999
1998
1998
1998
1998
1999
2000
2000
2000
2000
2000
1999
1998
1998
1998
1999
1999
1999
1999
1999
1999
1999
1999
1999
1999
1999
1999
1999
1998
1998
1998
1998
1998
1998
1998
1998
1999
1999
2000
2000
1999
1999
1998
1998
1997
1998
1999
2000
2001
2002
2001
2000
2000
1999
1999
2000
1999
2000
2001
2002
2005
2006
2007
2007
2005
2004
2004
2004
2004
2003
2002
2001
2000
1999
1999
1999
2000
2001
2002
2003
2004
2002
2000
1998
1996
1996
2004
2025
2059
2101
2133
2140
2116
2069
2021
1987
1977
1984
1996
2003
2005
2003
2000
1998
1998
1997
1998
1998
1999
2000
2000
2000
1999
1999
1999
1999
2000
2000
2001
2001
2002
2002
2003
2003
2004
2004
2004
2004
2005
2006
2006
2006
2004
2003
2002
2003
2005
2008
2009
2010
2010
2010
2009
2009
2009
2010
2012
2013
2015
2016
2016
2016
2015
2014
2013
2012
2011
2011
2010
2008
2006
2004
2001
1999
1998
1997
1996
1995
1993
1992
1991
1991
1990
1991
1991
1992
1994
1994
1995
1994
1993
1992
1992
1991
1991
1991
1991
1991
1991
1992
1992
1993
1993
1992
1992
1991
1991
1992
1993
1993
1993
1993
1992
1991
1991
1991
1992
1992
1993
1993
1993
1993
1993
1992
1992
1991
1991
1991
1991
1992
1993
1994
1994
1993
1992
1991
1990
1990
1991
1991
1991
1991
1990
1990
1990
1991
1992
1993
1993
1994
1995
1994
1993
1991
1989
1987
1986
1987
1989
1992
1994
1997
1999
2001
2002
2002
2001
1999
1997
1995
1994
1993
1992
1991
1991
1991
1992
1994
1995
1996
1996
1995
1993
1991
1989
1987
1987
1997
2024
2066
2112
2142
2139
2102
2049
2002
1975
1972
1981
1990
1994
1992
1990
1988
1988
1988
1989
1990
1990
1991
1991
1991
1990
1990
1990
1990
1991
1993
1994
1994
1994
1993
1992
1991
1991
1992
1993
1994
1995
1996
1996
1996
1995
1995
1995
1995
1996
1998
2000
2002
2002
2002
2000
2000
2001
2002
2004
2006
2007
2007
2006
2006
2005
2005
2004
2004
2004
2004
2004
2003
2001
1999
1997
1994
1993
1992
1992
1991
1991
1990
1989
1987
1987
1986
1987
1987
1989
1990
1991
1991
1990
1989
1988
1987
1987
1987
1988
1988
1989
1989
1989
1989
1988
1987
1986
1986
1986
1987
1988
1988
1988
1988
1987
1987
1986
1986
1986
1987
1988
1988
1988
1987
1987
1986
1986
1987
1988
1989
1991
1991
1989
1987
1984
1983
1983
1984
1986
1987
1987
1987
1986
1986
1985
1985
1986
1986
1986
1986
1986
1985
1984
1984
1983
1982
1982
1982
1982
1983
1984
1986
1987
1988
1989
1990
1990
1990
1991
1992
1993
1993
1992
1989
1987
1985
1984
1985
1986
1987
1988
1988
1988
1988
1987
1985
1983
1981
1981
1989
2011
2048
2088
2117
2118
2088
2040
1994
1968
1964
1975
1987
1992
1991
1987
1985
1984
1984
1984
1985
1985
1985
1986
1986
1986
1986
1986
1986
1987
1988
1989
1990
1990
1990
1989
1988
1988
1988
1989
1990
1991
1992
1993
1994
1995
1995
1995
1995
1996
1996
1997
1999
1999
2000
2000
2001
2001
2003
2004
2005
2006
2007
2008
2009
2009
2009
2008
2008
2007
2006
2004
2002
2000
1998
1995
1993
1992
1990
1989
1988
1988
1989
1990
1990
1990
1988
1987
1986
1985
1986
1987
1987
1988
1988
1988
1988
1988
1989
1990
1991
1992
1991
1990
1988
1987
1986
1987
1988
1989
1990
1990
1990
1990
1990
1989
1989
1988
1988
1988
1988
1989
1990
1990
1990
1989
1989
1988
1988
1989
1989
1989
1989
1989
1988
1987
1987
1987
1987
1988
1988
1988
1989
1989
1990
1989
1989
1987
1986
1986
1987
1988
1990
1990
1989
1987
1986
1986
1987
1987
1988
1988
1988
1988
1987
1986
1985
1985
1986
1987
1990
1992
1993
1995
1995
1995
1995
1995
1994
1992
1990
1989
1988
1988
1988
1989
1989
1989
1989
1988
1988
1988
1987
1986
1985
1985
1987
1998
2022
2057
2093
2113
2106
2071
2025
1986
1966
1967
1978
1988
1991
1991
1989
1988
1987
1986
1985
1985
1985
1985
1986
1987
1988
1989
1990
1990
1989
1988
1987
1987
1987
1989
1990
1992
1993
1993
1993
1993
1993
1992
1992
1992
1993
1994
1995
1995
1995
1996
1997
1998
2000
2003
2004
2005
2004
2003
2002
2002
2003
2005
2007
2008
2009
2010
2009
2009
2008
2006
2005
2004
2002
2000
1998
1996
1993
1991
1989
1988
1987
1987
1988
1989
1990
1990
1990
1989
1988
1987
1987
1988
1989
1991
1992
1992
1992
1991
1990
1990
1989
1990
1990
1990
1991
1991
1992
1992
1992
1991
1991
1991
1991
1991
1991
1991
1991
1991
1991
1992
1991
1991
1992
1992
1993
1994
1994
1994
1993
1992
1991
1991
1992
1993
1995
1996
1995
1995
1994
1994
1994
1994
1994
1993
1994
1994
1994
1995
1994
1994
1995
1996
1997
1998
1999
1999
1997
1996
1995
1995
1996
1997
1998
1998
1997
1997
1996
1996
1997
1998
2000
2001
2003
2004
2005
2006
2006
2006
2005
2004
2002
2001
2000
2000
2000
2001
2001
2000
2000
2000
2000
2000
1999
1999
1998
1997
1998
2007
2029
2062
2097
2118
2113
2081
2037
1998
1978
1979
1990
2001
2005
2004
2001
2000
2001
2001
2002
2002
2001
2001
2001
2002
2003
2004
2004
2004
2004
2004
2004
2004
2005
2006
2006
2007
2008
2008
2008
2008
2008
2009
2010
2011
2012
2012
2012
2012
2012
2013
2013
2014
2015
2016
2018
2019
2020
2021
2021
2022
2022
2023
2024
2026
2027
2028
2028
2027
2025
2023
2021
2019
2017
2014
2012
2010
2009
2007
2006
2006
2005
2004
2003
2003
2002
2002
2002
2003
2003
2002
2002
2001
2001
2002
2002
2003
2003
2002
2002
2002
2002
2002
2002
2003
2003
2003
2004
2004
2003
2002
2001
2000
2000
2000
2001
2002
2002
2002
2001
2000
1999
1999
1998
1999
2000
2001
2001
2000
1999
1998
1998
1998
1998
1998
1999
1999
1999
1999
1999
1999
1998
1998
1998
1998
1999
1999
1999
1998
1997
1997
1996
1997
1997
1997
1998
1998
1999
1999
1998
1997
1995
1994
1993
1994
1995
1996
1996
1996
1996
1997
1998
2000
2002
2003
2003
2002
2000
1997
1995
1994
1993
1992
1992
1993
1994
1995
1996
1996
1995
1993
1991
1990
1989
1990
2001
2024
2058
2093
2112
2104
2069
2024
1986
1968
1970
1981
1992
1996
1995
1992
1991
1991
1990
1990
1990
1990
1990
1991
1991
1991
1991
1991
1991
1991
1991
1991
1992
1993
1994
1994
1993
1992
1992
1991
1992
1994
1995
1996
1997
1996
1996
1996
1996
1997
1999
2001
2002
2003
2004
2003
2002
2001
2002
2003
2005
2007
2008
2008
2009
2009
2009
2009
2008
2007
2006
2005
2003
2001
1998
1995
1991
1989
1987
1986
1985
1985
1985
1985
1984
1983
1982
1981
1982
1983
1985
1986
1986
1985
1984
1982
1981
1981
1982
1984
1985
1986
1985
1984
1983
1982
1982
1982
1982
1983
1984
1985
1985
1984
1983
1982
1982
1982
1982
1983
1983
1982
1982
1982
1982
1982
1982
1981
1980
1980
1981
1982
1983
1983
1982
1980
1979
1979
1980
1981
1982
1982
1983
1982
1981
1980
1979
1979
1979
1980
1980
1981
1981
1981
1981
1981
1980
1979
1979
1979
1979
1979
1980
1980
1981
1982
1983
1984
1986
1987
1987
1986
1984
1983
1981
1980
1979
1978
1978
1979
1980
1982
1983
1983
1982
1979
1976
1974
1974
1979
1993
2021
2055
2086
2097
2080
2042
1997
1965
1953
1960
1973
1982
1984
1982
1980
1979
1979
1979
1980
1980
1980
1980
1981
1981
1981
1981
1981
1981
1980
1980
1981
1981
1982
1983
1983
1983
1983
1983
1983
1984
1984
1985
1985
1985
1986
1986
1987
1988
1989
1990
1990
1991
1991
1992
1993
1994
1995
1996
1997
1998
1998
1999
2001
2002
2002
2002
2001
2000
1999
1998
1997
1994
1991
1988
1984
1981
1979
1978
1977
1977
1977
1976
1975
1975
1974
1973
1973
1973
1974
1975
1977
1977
1977
1976
1974
1973
1973
1974
1976
1977
1978
1977
1976
1974
1973
1973
1974
1975
1976
1976
1976
1976
1976
1976
1976
1976
1975
1974
1975
1975
1976
1976
1976
1976
1975
1974
1973
1973
1973
1974
1974
1975
1976
1976
1975
1974
1973
1973
1973
1974
1975
1975
1976
1976
1976
1975
1974
1973
1973
1974
1974
1975
1975
1975
1974
1973
1972
1972
1973
1974
1975
1976
1977
1978
1979
1980
1980
1981
1981
1980
1980
1979
1977
1975
1974
1974
1974
1975
1975
1976
1977
1977
1977
1976
1974
1972
1970
1972
1982
2006
2040
2073
2092
2083
2049
2004
1966
1948
1952
1965
1978
1982
1981
1977
1975
1973
1973
1973
1974
1975
1976
1977
1977
1977
1976
1975
1974
1974
1975
1977
1978
1979
1980
1980
1980
1980
1980
1980
1980
1981
1982
1983
1984
1985
1985
1984
1984
1984
1984
1986
1987
1989
1990
1991
1991
1992
1994
1995
1997
1998
1998
1998
1999
2000
2001
2001
2000
1998
1996
1994
1992
1990
1987
1984
1981
1979
1977
1976
1976
1976
1976
1976
1975
1975
1974
1974
1975
1975
1975
1975
1975
1976
1976
1977
1977
1977
1976
1975
1974
1974
1975
1975
1975
1975
1974
1973
1973
1973
1973
1974
1975
1976
1976
1976
1975
1974
1974
1973
1973
1974
1974
1974
1974
1974
1973
1972
1972
1972
1972
1973
1973
1972
1972
1972
1972
1972
1972
1972
1972
1973
1973
1973
1973
1972
1972
1971
1971
1970
1970
1970
1971
1971
1971
1971
1970
1969
1969
1970
1972
1974
1977
1979
1979
1978
1976
1974
1972
1971
1971
1971
1971
1971
1971
1970
1970
1970
1969
1968
1967
1967
1968
1970
1976
1992
2018
2049
2075
2080
2059
2019
1975
1945
1936
1946
1961
1973
1977
1976
1974
1973
1972
1973
1974
1975
1975
1974
1974
1974
1974
1974
1974
1974
1974
1974
1974
1975
1976
1978
1980
1981
1981
1980
1979
1979
1979
1980
1981
1982
1983
1985
1987
1987
1987
1986
1986
1987
1989
1991
1993
1995
1996
1996
1997
1998
2000
2002
2003
2005
2005
2005
2004
2003
2001
1999
1995
1991
1987
1984
1981
1979
1978
1977
1975
1973
1972
1971
1971
1972
1972
1972
1972
1971
1971
1971
1971
1971
1971
1971
1971
1971
1971
1971
1972
1973
1974
1974
1975
1974
1975
1975
1976
1977
1978
1977
1976
1975
1974
1974
1974
1975
1976
1976
1976
1977
1976
1976
1975
1974
1974
1975
1976
1977
1977
1977
1977
1977
1976
1975
1975
1974
1975
1976
1978
1979
1979
1978
1977
1977
1979
1982
1985
1987
1988
1988
1985
1983
1980
1978
1977
1979
1980
1982
1983
1983
1982
1982
1981
1981
1979
1978
1977
1977
1986
2007
2041
2078
2105
2105
2076
2030
1984
1957
1953
1965
1980
1989
1989
1986
1982
1981
1981
1982
1983
1985
1986
1986
1986
1985
1986
1986
1986
1986
1986
1985
1985
1986
1987
1987
1988
1989
1991
1992
1992
1992
1991
1990
1990
1991
1992
1994
1996
1998
1999
2000
2000
2001
2001
2001
2002
2004
2006
2009
2011
2012
2012
2011
2012
2012
2013
2013
2013
2011
2008
2005
2001
1997
1994
1991
1989
1988
1987
1986
1985
1983
1982
1981
1980
1981
1981
1981
1981
1981
1981
1981
1981
1981
1980
1980
1981
1983
1984
1986
1986
1985
1984
1983
1983
1984
1985
1986
1986
1986
1986
1986
1986
1985
1985
1985
1986
1987
1987
1987
1987
1986
1985
1985
1984
1984
1985
1985
1985
1985
1985
1986
1986
1986
1986
1986
1985
1985
1986
1986
1986
1986
1985
1984
1984
1986
1988
1991
1993
1994
1995
1994
1993
1991
